time_s,recorded_ecg_mV,input_with_noise_mV,fpga_output_mV,reference_mV,detected_peak
0.000000,-0.145000,0.215000,0.000000,0.000000,0
0.002778,-0.145000,0.329907,-0.000244,-0.000244,0
0.005556,-0.145000,0.362721,-0.000244,-0.000244,0
0.008333,-0.145000,0.290000,-0.000732,-0.000732,0
0.011111,-0.145000,0.163697,-0.000977,-0.000977,0
0.013889,-0.145000,0.074046,-0.000977,-0.000977,0
0.016667,-0.145000,0.085096,-0.000732,-0.000732,0
0.019444,-0.145000,0.188953,-0.000732,-0.000732,0
0.022222,-0.120000,0.336418,-0.000488,-0.000488,0
0.025000,-0.135000,0.375000,-0.000488,-0.000488,0
0.027778,-0.145000,0.311418,-0.000732,-0.000732,0
0.030556,-0.150000,0.183953,-0.001465,-0.001465,0
0.033333,-0.160000,0.070096,-0.001953,-0.001953,0
0.036111,-0.155000,0.064046,-0.002197,-0.002197,0
0.038889,-0.160000,0.148697,-0.002197,-0.002197,0
0.041667,-0.175000,0.260000,-0.001953,-0.001953,0
0.044444,-0.180000,0.327721,-0.001465,-0.001465,0
0.047222,-0.185000,0.289907,-0.000977,-0.000977,0
0.050000,-0.170000,0.190000,-0.001221,-0.001221,0
0.052778,-0.155000,0.090093,-0.001953,-0.001953,0
0.055556,-0.175000,0.037279,-0.003174,-0.003174,0
0.058333,-0.180000,0.105000,-0.004395,-0.004395,0
0.061111,-0.190000,0.221303,-0.004883,-0.004883,0
0.063889,-0.180000,0.320954,-0.004639,-0.004639,0
0.066667,-0.155000,0.334904,-0.003662,-0.003662,0
0.069444,-0.135000,0.251047,-0.002197,-0.002197,0
0.072222,-0.155000,0.108582,-0.001465,-0.001465,0
0.075000,-0.190000,0.020000,-0.001953,-0.001953,0
0.077778,-0.205000,0.058582,-0.003662,-0.003662,0
0.080556,-0.235000,0.151047,-0.006104,-0.006104,0
0.083333,-0.225000,0.264904,-0.008301,-0.008301,0
0.086111,-0.245000,0.255954,-0.009277,-0.009277,0
0.088889,-0.250000,0.161303,-0.008301,-0.008301,0
0.091667,-0.260000,0.025000,-0.005859,-0.005859,0
0.094444,-0.275000,-0.062721,-0.003174,-0.003174,0
0.097222,-0.275000,-0.029907,-0.001709,-0.001709,0
0.100000,-0.275000,0.085000,-0.002686,-0.002686,0
0.102778,-0.265000,0.209907,-0.005859,-0.005859,0
0.105556,-0.255000,0.252721,-0.010498,-0.010498,0
0.108333,-0.265000,0.170000,-0.014160,-0.014160,0
0.111111,-0.275000,0.033697,-0.015381,-0.015381,0
0.113889,-0.290000,-0.070954,-0.013428,-0.013428,0
0.116667,-0.290000,-0.059904,-0.008789,-0.008789,0
0.119444,-0.290000,0.043953,-0.003662,-0.003662,0
0.122222,-0.290000,0.166418,-0.000977,-0.000977,0
0.125000,-0.285000,0.225000,-0.002441,-0.002441,0
0.127778,-0.295000,0.161418,-0.008301,-0.008301,0
0.130556,-0.305000,0.028953,-0.016113,-0.016113,0
0.133333,-0.285000,-0.054904,-0.023193,-0.023193,0
0.136111,-0.275000,-0.055954,-0.025391,-0.025391,0
0.138889,-0.275000,0.033697,-0.021484,-0.021484,0
0.141667,-0.280000,0.155000,-0.012207,-0.012207,0
0.144444,-0.285000,0.222721,-0.001709,-0.001709,0
0.147222,-0.305000,0.169907,0.005127,0.005127,0
0.150000,-0.290000,0.070000,0.003906,0.003906,0
0.152778,-0.300000,-0.054907,-0.007080,-0.007080,0
0.155556,-0.280000,-0.067721,-0.024902,-0.024902,0
0.158333,-0.290000,-0.005000,-0.042480,-0.042480,0
0.161111,-0.300000,0.111303,-0.051758,-0.051758,0
0.163889,-0.315000,0.185954,-0.044678,-0.044678,0
0.166667,-0.320000,0.169904,-0.017578,-0.017578,0
0.169444,-0.335000,0.051047,0.027344,0.027344,0
0.172222,-0.360000,-0.096418,0.083008,0.083008,0
0.175000,-0.385000,-0.175000,0.138428,0.138428,0
0.177778,-0.385000,-0.121418,0.183838,0.183838,0
0.180556,-0.405000,-0.018953,0.211914,0.211914,0
0.183333,-0.455000,0.034904,0.221436,0.221436,0
0.186111,-0.485000,0.015954,0.216553,0.216553,0
0.188889,-0.485000,-0.073697,0.204346,0.204346,0
0.191667,-0.425000,-0.140000,0.192627,0.192627,0
0.194444,-0.330000,-0.117721,0.186279,0.186279,0
0.197222,-0.220000,0.025093,0.187256,0.187256,0
0.200000,-0.070000,0.290000,0.193115,0.193115,0
0.202778,0.120000,0.594907,0.199463,0.199463,0
0.205556,0.375000,0.882721,0.202148,0.202148,0
0.208333,0.620000,1.055000,0.198486,0.198486,0
0.211111,0.780000,1.088697,0.189209,0.189209,0
0.213889,0.840000,1.059046,0.176758,0.176758,0
0.216667,0.765000,0.995096,0.164795,0.164795,0
0.219444,0.520000,0.853953,0.156250,0.156250,0
0.222222,0.170000,0.626418,0.152588,0.152588,0
0.225000,-0.165000,0.345000,0.153564,0.153564,0
0.227778,-0.365000,0.091418,0.157471,0.157471,0
0.230556,-0.435000,-0.101047,0.162354,0.162354,0
0.233333,-0.425000,-0.194904,0.166504,0.166504,0
0.236111,-0.370000,-0.150954,0.168945,0.168945,0
0.238889,-0.330000,-0.021303,0.169678,0.169678,0
0.241667,-0.325000,0.110000,0.169189,0.169189,0
0.244444,-0.335000,0.172721,0.167236,0.167236,0
0.247222,-0.345000,0.129907,0.163574,0.163574,0
0.250000,-0.330000,0.030000,0.157227,0.157227,0
0.252778,-0.325000,-0.079907,0.146973,0.146973,0
0.255556,-0.315000,-0.102721,0.132568,0.132568,0
0.258333,-0.310000,-0.025000,0.114746,0.114746,0
0.261111,-0.320000,0.091303,0.095703,0.095703,0
0.263889,-0.335000,0.165954,0.078125,0.078125,0
0.266667,-0.340000,0.149904,0.065186,0.065186,0
0.269444,-0.325000,0.061047,0.058838,0.058838,0
0.272222,-0.345000,-0.081418,0.058838,0.058838,0
0.275000,-0.335000,-0.125000,0.063232,0.063232,0
0.277778,-0.330000,-0.066418,0.069092,0.069092,0
0.280556,-0.335000,0.051047,0.072754,0.072754,0
0.283333,-0.330000,0.159904,0.071289,0.071289,0
0.286111,-0.325000,0.175954,0.064453,0.064453,0
0.288889,-0.330000,0.081303,0.053955,0.053955,0
0.291667,-0.330000,-0.045000,0.042969,0.042969,0
0.294444,-0.345000,-0.132721,0.034668,0.034668,0
0.297222,-0.355000,-0.109907,0.031738,0.031738,0
0.300000,-0.335000,0.025000,0.034424,0.034424,0
0.302778,-0.325000,0.149907,0.041260,0.041260,0
0.305556,-0.305000,0.202721,0.048584,0.048584,0
0.308333,-0.320000,0.115000,0.053223,0.053223,0
0.311111,-0.320000,-0.011303,0.053223,0.053223,0
0.313889,-0.330000,-0.110954,0.048340,0.048340,0
0.316667,-0.340000,-0.109904,0.041260,0.041260,0
0.319444,-0.335000,-0.001047,0.035156,0.035156,0
0.322222,-0.340000,0.116418,0.033203,0.033203,0
0.325000,-0.345000,0.165000,0.036133,0.036133,0
0.327778,-0.355000,0.101418,0.042480,0.042480,0
0.330556,-0.355000,-0.021047,0.048584,0.048584,0
0.333333,-0.340000,-0.109904,0.049561,0.049561,0
0.336111,-0.330000,-0.110954,0.042480,0.042480,0
0.338889,-0.330000,-0.021303,0.027100,0.027100,0
0.341667,-0.330000,0.105000,0.006348,0.006348,0
0.344444,-0.340000,0.167721,-0.014404,-0.014404,0
0.347222,-0.350000,0.124907,-0.031006,-0.031006,0
0.350000,-0.325000,0.035000,-0.042236,-0.042236,0
0.352778,-0.325000,-0.079907,-0.050781,-0.050781,0
0.355556,-0.330000,-0.117721,-0.062500,-0.062500,0
0.358333,-0.330000,-0.045000,-0.082275,-0.082275,0
0.361111,-0.335000,0.076303,-0.109863,-0.109863,0
0.363889,-0.335000,0.165954,-0.135742,-0.135742,0
0.366667,-0.340000,0.149904,-0.141602,-0.141602,0
0.369444,-0.330000,0.056047,-0.104736,-0.104736,0
0.372222,-0.340000,-0.076418,-0.005859,-0.005859,0
0.375000,-0.350000,-0.140000,0.162842,0.162842,0
0.377778,-0.355000,-0.091418,0.390137,0.390137,0
0.380556,-0.350000,0.036047,0.645752,0.645752,0
0.383333,-0.345000,0.144904,0.884033,0.884033,0
0.386111,-0.330000,0.170954,1.056641,1.056641,0
0.388889,-0.320000,0.091303,1.125000,1.125000,1
0.391667,-0.335000,-0.050000,1.071777,1.071777,0
0.394444,-0.330000,-0.117721,0.906982,0.906982,0
0.397222,-0.345000,-0.099907,0.665283,0.665283,0
0.400000,-0.330000,0.030000,0.396973,0.396973,0
0.402778,-0.335000,0.139907,0.154297,0.154297,0
0.405556,-0.335000,0.172721,-0.023193,-0.023193,0
0.408333,-0.345000,0.090000,-0.117432,-0.117432,0
0.411111,-0.345000,-0.036303,-0.133301,-0.133301,0
0.413889,-0.355000,-0.135954,-0.093994,-0.093994,0
0.416667,-0.340000,-0.109904,-0.032227,-0.032227,0
0.419444,-0.340000,-0.006047,0.023193,0.023193,0
0.422222,-0.335000,0.121418,0.053223,0.053223,0
0.425000,-0.330000,0.180000,0.054443,0.054443,0
0.427778,-0.350000,0.106418,0.034668,0.034668,0
0.430556,-0.350000,-0.016047,0.008057,0.008057,0
0.433333,-0.345000,-0.114904,-0.011719,-0.011719,0
0.436111,-0.335000,-0.115954,-0.017822,-0.017822,0
0.438889,-0.335000,-0.026303,-0.010254,-0.010254,0
0.441667,-0.335000,0.100000,0.004395,0.004395,0
0.444444,-0.350000,0.157721,0.018311,0.018311,0
0.447222,-0.355000,0.119907,0.025146,0.025146,0
0.450000,-0.355000,0.005000,0.022949,0.022949,0
0.452778,-0.345000,-0.099907,0.014160,0.014160,0
0.455556,-0.345000,-0.132721,0.003906,0.003906,0
0.458333,-0.335000,-0.050000,-0.003662,-0.003662,0
0.461111,-0.350000,0.061303,-0.005371,-0.005371,0
0.463889,-0.360000,0.140954,-0.001709,-0.001709,0
0.466667,-0.360000,0.129904,0.004883,0.004883,0
0.469444,-0.360000,0.026047,0.011475,0.011475,0
0.472222,-0.365000,-0.101418,0.015869,0.015869,0
0.475000,-0.360000,-0.150000,0.017578,0.017578,0
0.477778,-0.370000,-0.106418,0.017334,0.017334,0
0.480556,-0.385000,0.001047,0.016846,0.016846,0
0.483333,-0.370000,0.119904,0.016846,0.016846,0
0.486111,-0.360000,0.140954,0.017822,0.017822,0
0.488889,-0.355000,0.056303,0.018555,0.018555,0
0.491667,-0.360000,-0.075000,0.018066,0.018066,0
0.494444,-0.375000,-0.162721,0.015381,0.015381,0
0.497222,-0.375000,-0.129907,0.010742,0.010742,0
0.500000,-0.365000,-0.005000,0.005371,0.005371,0
0.502778,-0.365000,0.109907,0.000977,0.000977,0
0.505556,-0.360000,0.147721,-0.000977,-0.000977,0
0.508333,-0.360000,0.075000,0.000488,0.000488,0
0.511111,-0.365000,-0.056303,0.004883,0.004883,0
0.513889,-0.370000,-0.150954,0.010498,0.010498,0
0.516667,-0.355000,-0.124904,0.015625,0.015625,0
0.519444,-0.330000,0.003953,0.019043,0.019043,0
0.522222,-0.325000,0.131418,0.020020,0.020020,0
0.525000,-0.325000,0.185000,0.019287,0.019287,0
0.527778,-0.335000,0.121418,0.018311,0.018311,0
0.530556,-0.340000,-0.006047,0.018066,0.018066,0
0.533333,-0.315000,-0.084904,0.019043,0.019043,0
0.536111,-0.300000,-0.080954,0.020508,0.020508,0
0.538889,-0.300000,0.008697,0.020752,0.020752,0
0.541667,-0.290000,0.145000,0.019287,0.019287,0
0.544444,-0.295000,0.212721,0.015869,0.015869,0
0.547222,-0.290000,0.184907,0.011230,0.011230,0
0.550000,-0.285000,0.075000,0.006836,0.006836,0
0.552778,-0.275000,-0.029907,0.004639,0.004639,0
0.555556,-0.255000,-0.042721,0.005371,0.005371,0
0.558333,-0.250000,0.035000,0.008789,0.008789,0
0.561111,-0.250000,0.161303,0.014160,0.014160,0
0.563889,-0.265000,0.235954,0.019531,0.019531,0
0.566667,-0.255000,0.234904,0.023682,0.023682,0
0.569444,-0.245000,0.141047,0.025635,0.025635,0
0.572222,-0.230000,0.033582,0.025146,0.025146,0
0.575000,-0.245000,-0.035000,0.022705,0.022705,0
0.577778,-0.245000,0.018582,0.019287,0.019287,0
0.580556,-0.255000,0.131047,0.015869,0.015869,0
0.583333,-0.255000,0.234904,0.012939,0.012939,0
0.586111,-0.240000,0.260954,0.011475,0.011475,0
0.588889,-0.250000,0.161303,0.010986,0.010986,0
0.591667,-0.255000,0.030000,0.011719,0.011719,0
0.594444,-0.245000,-0.032721,0.012939,0.012939,0
0.597222,-0.255000,-0.009907,0.014160,0.014160,0
0.600000,-0.250000,0.110000,0.015381,0.015381,0
0.602778,-0.250000,0.224907,0.015869,0.015869,0
0.605556,-0.265000,0.242721,0.015625,0.015625,0
0.608333,-0.260000,0.175000,0.015137,0.015137,0
0.611111,-0.260000,0.048697,0.013916,0.013916,0
0.613889,-0.265000,-0.045954,0.012695,0.012695,0
0.616667,-0.270000,-0.039904,0.011475,0.011475,0
0.619444,-0.265000,0.068953,0.010254,0.010254,0
0.622222,-0.260000,0.196418,0.009033,0.009033,0
0.625000,-0.275000,0.235000,0.008057,0.008057,0
0.627778,-0.280000,0.176418,0.007568,0.007568,0
0.630556,-0.290000,0.043953,0.007324,0.007324,0
0.633333,-0.275000,-0.044904,0.007080,0.007080,0
0.636111,-0.270000,-0.050954,0.006104,0.006104,0
0.638889,-0.260000,0.048697,0.003906,0.003906,0
0.641667,-0.280000,0.155000,0.000244,0.000244,0
0.644444,-0.280000,0.227721,-0.004639,-0.004639,0
0.647222,-0.285000,0.189907,-0.009766,-0.009766,0
0.650000,-0.275000,0.085000,-0.014160,-0.014160,0
0.652778,-0.275000,-0.029907,-0.016602,-0.016602,0
0.655556,-0.265000,-0.052721,-0.017334,-0.017334,0
0.658333,-0.270000,0.015000,-0.016113,-0.016113,0
0.661111,-0.285000,0.126303,-0.014160,-0.014160,0
0.663889,-0.290000,0.210954,-0.012207,-0.012207,0
0.666667,-0.280000,0.209904,-0.011230,-0.011230,0
0.669444,-0.275000,0.111047,-0.011719,-0.011719,0
0.672222,-0.285000,-0.021418,-0.012939,-0.012939,0
0.675000,-0.280000,-0.070000,-0.014648,-0.014648,0
0.677778,-0.300000,-0.036418,-0.016113,-0.016113,0
0.680556,-0.300000,0.086047,-0.016357,-0.016357,0
0.683333,-0.305000,0.184904,-0.015137,-0.015137,0
0.686111,-0.295000,0.205954,-0.011963,-0.011963,0
0.688889,-0.300000,0.111303,-0.007080,-0.007080,0
0.691667,-0.310000,-0.025000,-0.001221,-0.001221,0
0.694444,-0.310000,-0.097721,0.005127,0.005127,0
0.697222,-0.305000,-0.059907,0.011230,0.011230,0
0.700000,-0.295000,0.065000,0.016602,0.016602,0
0.702778,-0.285000,0.189907,0.021484,0.021484,0
0.705556,-0.285000,0.222721,0.026123,0.026123,0
0.708333,-0.290000,0.145000,0.030762,0.030762,0
0.711111,-0.295000,0.013697,0.035889,0.035889,0
0.713889,-0.310000,-0.090954,0.041748,0.041748,0
0.716667,-0.290000,-0.059904,0.048096,0.048096,0
0.719444,-0.295000,0.038953,0.054688,0.054688,0
0.722222,-0.300000,0.156418,0.061279,0.061279,0
0.725000,-0.305000,0.205000,0.067383,0.067383,0
0.727778,-0.310000,0.146418,0.073486,0.073486,0
0.730556,-0.325000,0.008953,0.079102,0.079102,0
0.733333,-0.310000,-0.079904,0.084961,0.084961,0
0.736111,-0.300000,-0.080954,0.090576,0.090576,0
0.738889,-0.290000,0.018697,0.095459,0.095459,0
0.741667,-0.310000,0.125000,0.098877,0.098877,0
0.744444,-0.325000,0.182721,0.101074,0.101074,0
0.747222,-0.330000,0.144907,0.101807,0.101807,0
0.750000,-0.315000,0.045000,0.101318,0.101318,0
0.752778,-0.300000,-0.054907,0.100342,0.100342,0
0.755556,-0.305000,-0.092721,0.099121,0.099121,0
0.758333,-0.310000,-0.025000,0.098145,0.098145,0
0.761111,-0.320000,0.091303,0.097168,0.097168,0
0.763889,-0.330000,0.170954,0.096436,0.096436,0
0.766667,-0.325000,0.164904,0.095703,0.095703,0
0.769444,-0.315000,0.071047,0.094971,0.094971,0
0.772222,-0.310000,-0.046418,0.093994,0.093994,0
0.775000,-0.305000,-0.095000,0.093018,0.093018,0
0.777778,-0.305000,-0.041418,0.091309,0.091309,0
0.780556,-0.310000,0.076047,0.089355,0.089355,0
0.783333,-0.300000,0.189904,0.086914,0.086914,0
0.786111,-0.305000,0.195954,0.084229,0.084229,0
0.788889,-0.290000,0.121303,0.081543,0.081543,0
0.791667,-0.300000,-0.015000,0.079102,0.079102,0
0.794444,-0.300000,-0.087721,0.076904,0.076904,0
0.797222,-0.305000,-0.059907,0.074951,0.074951,0
0.800000,-0.305000,0.055000,0.072998,0.072998,0
0.802778,-0.290000,0.184907,0.071045,0.071045,0
0.805556,-0.280000,0.227721,0.069092,0.069092,0
0.808333,-0.295000,0.140000,0.067871,0.067871,0
0.811111,-0.305000,0.003697,0.067383,0.067383,0
0.813889,-0.315000,-0.095954,0.067627,0.067627,0
0.816667,-0.305000,-0.074904,0.068604,0.068604,0
0.819444,-0.295000,0.038953,0.069580,0.069580,0
0.822222,-0.290000,0.166418,0.070312,0.070312,0
0.825000,-0.280000,0.230000,0.070312,0.070312,0
0.827778,-0.270000,0.186418,0.069580,0.069580,0
0.830556,-0.275000,0.058953,0.068604,0.068604,0
0.833333,-0.275000,-0.044904,0.067627,0.067627,0
0.836111,-0.270000,-0.050954,0.066895,0.066895,0
0.838889,-0.250000,0.058697,0.066162,0.066162,0
0.841667,-0.250000,0.185000,0.065186,0.065186,0
0.844444,-0.255000,0.252721,0.063721,0.063721,0
0.847222,-0.225000,0.249907,0.061768,0.061768,0
0.850000,-0.220000,0.140000,0.058838,0.058838,0
0.852778,-0.205000,0.040093,0.054932,0.054932,0
0.855556,-0.200000,0.012279,0.050537,0.050537,0
0.858333,-0.205000,0.080000,0.046143,0.046143,0
0.861111,-0.215000,0.196303,0.041992,0.041992,0
0.863889,-0.230000,0.270954,0.039307,0.039307,0
0.866667,-0.220000,0.269904,0.038330,0.038330,0
0.869444,-0.225000,0.161047,0.039795,0.039795,0
0.872222,-0.225000,0.038582,0.042969,0.042969,0
0.875000,-0.225000,-0.015000,0.047363,0.047363,0
0.877778,-0.230000,0.033582,0.051514,0.051514,0
0.880556,-0.235000,0.151047,0.054443,0.054443,0
0.883333,-0.240000,0.249904,0.055420,0.055420,0
0.886111,-0.235000,0.265954,0.054199,0.054199,0
0.888889,-0.220000,0.191303,0.051758,0.051758,0
0.891667,-0.210000,0.075000,0.048584,0.048584,0
0.894444,-0.205000,0.007279,0.045410,0.045410,0
0.897222,-0.245000,0.000093,0.042725,0.042725,0
0.900000,-0.285000,0.075000,0.040771,0.040771,0
0.902778,-0.285000,0.189907,0.039062,0.039062,0
0.905556,-0.300000,0.207721,0.037842,0.037842,0
0.908333,-0.310000,0.125000,0.036621,0.036621,0
0.911111,-0.330000,-0.021303,0.035400,0.035400,0
0.913889,-0.330000,-0.110954,0.034912,0.034912,0
0.916667,-0.325000,-0.094904,0.034668,0.034668,0
0.919444,-0.315000,0.018953,0.034668,0.034668,0
0.922222,-0.320000,0.136418,0.034424,0.034424,0
0.925000,-0.315000,0.195000,0.033691,0.033691,0
0.927778,-0.325000,0.131418,0.032471,0.032471,0
0.930556,-0.340000,-0.006047,0.031006,0.031006,0
0.933333,-0.345000,-0.114904,0.029053,0.029053,0
0.936111,-0.340000,-0.120954,0.027588,0.027588,0
0.938889,-0.340000,-0.031303,0.026855,0.026855,0
0.941667,-0.350000,0.085000,0.026855,0.026855,0
0.944444,-0.345000,0.162721,0.027832,0.027832,0
0.947222,-0.355000,0.119907,0.030029,0.030029,0
0.950000,-0.330000,0.030000,0.032959,0.032959,0
0.952778,-0.335000,-0.089907,0.036133,0.036133,0
0.955556,-0.330000,-0.117721,0.039307,0.039307,0
0.958333,-0.320000,-0.035000,0.041748,0.041748,0
0.961111,-0.345000,0.066303,0.043457,0.043457,0
0.963889,-0.355000,0.145954,0.044678,0.044678,0
0.966667,-0.340000,0.149904,0.045654,0.045654,0
0.969444,-0.330000,0.056047,0.046631,0.046631,0
0.972222,-0.325000,-0.061418,0.047607,0.047607,0
0.975000,-0.330000,-0.120000,0.048340,0.048340,0
0.977778,-0.350000,-0.086418,0.048340,0.048340,0
0.980556,-0.365000,0.021047,0.047363,0.047363,0
0.983333,-0.360000,0.129904,0.045654,0.045654,0
0.986111,-0.380000,0.120954,0.043945,0.043945,0
0.988889,-0.425000,-0.013697,0.042969,0.042969,0
0.991667,-0.445000,-0.160000,0.043701,0.043701,0
0.994444,-0.475000,-0.262721,0.046387,0.046387,0
0.997222,-0.510000,-0.264907,0.050781,0.050781,0
1.000000,-0.535000,-0.175000,0.056396,0.056396,0
1.002778,-0.505000,-0.030093,0.062256,0.062256,0
1.005556,-0.415000,0.092721,0.067627,0.067627,0
1.008333,-0.300000,0.135000,0.072754,0.072754,0
1.011111,-0.160000,0.148697,0.077881,0.077881,0
1.013889,-0.015000,0.204046,0.083740,0.083740,0
1.016667,0.235000,0.465096,0.090576,0.090576,0
1.019444,0.490000,0.823953,0.098877,0.098877,0
1.022222,0.720000,1.176418,0.107910,0.107910,0
1.025000,0.875000,1.385000,0.117188,0.117188,0
1.027778,0.940000,1.396418,0.125732,0.125732,0
1.030556,0.905000,1.238953,0.132080,0.132080,0
1.033333,0.755000,0.985096,0.135498,0.135498,0
1.036111,0.490000,0.709046,0.135498,0.135498,0
1.038889,0.165000,0.473697,0.132080,0.132080,0
1.041667,-0.110000,0.325000,0.125977,0.125977,0
1.044444,-0.270000,0.237721,0.118408,0.118408,0
1.047222,-0.390000,0.084907,0.111328,0.111328,0
1.050000,-0.450000,-0.090000,0.106445,0.106445,0
1.052778,-0.475000,-0.229907,0.104980,0.104980,0
1.055556,-0.455000,-0.242721,0.107178,0.107178,0
1.058333,-0.425000,-0.140000,0.112061,0.112061,0
1.061111,-0.390000,0.021303,0.117920,0.117920,0
1.063889,-0.390000,0.110954,0.121826,0.121826,0
1.066667,-0.385000,0.104904,0.122070,0.122070,0
1.069444,-0.390000,-0.003953,0.116455,0.116455,0
1.072222,-0.380000,-0.116418,0.104492,0.104492,0
1.075000,-0.380000,-0.170000,0.087158,0.087158,0
1.077778,-0.380000,-0.116418,0.066650,0.066650,0
1.080556,-0.395000,-0.008953,0.045898,0.045898,0
1.083333,-0.385000,0.104904,0.028564,0.028564,0
1.086111,-0.385000,0.115954,0.016846,0.016846,0
1.088889,-0.385000,0.026303,0.012207,0.012207,0
1.091667,-0.375000,-0.090000,0.013184,0.013184,0
1.094444,-0.395000,-0.182721,0.017334,0.017334,0
1.097222,-0.410000,-0.164907,0.021240,0.021240,0
1.100000,-0.410000,-0.050000,0.021973,0.021973,0
1.102778,-0.400000,0.074907,0.018066,0.018066,0
1.105556,-0.395000,0.112721,0.010010,0.010010,0
1.108333,-0.390000,0.045000,0.000244,0.000244,0
1.111111,-0.405000,-0.096303,-0.008301,-0.008301,0
1.113889,-0.395000,-0.175954,-0.012939,-0.012939,0
1.116667,-0.385000,-0.154904,-0.012939,-0.012939,0
1.119444,-0.375000,-0.041047,-0.008789,-0.008789,0
1.122222,-0.390000,0.066418,-0.002930,-0.002930,0
1.125000,-0.390000,0.120000,0.001465,0.001465,0
1.127778,-0.405000,0.051418,0.002930,0.002930,0
1.130556,-0.410000,-0.076047,0.001221,0.001221,0
1.133333,-0.410000,-0.179904,-0.002197,-0.002197,0
1.136111,-0.390000,-0.170954,-0.005615,-0.005615,0
1.138889,-0.390000,-0.081303,-0.006592,-0.006592,0
1.141667,-0.395000,0.040000,-0.004395,-0.004395,0
1.144444,-0.405000,0.102721,-0.000244,-0.000244,0
1.147222,-0.415000,0.059907,0.003662,0.003662,0
1.150000,-0.400000,-0.040000,0.004395,0.004395,0
1.152778,-0.410000,-0.164907,-0.000244,-0.000244,0
1.155556,-0.405000,-0.192721,-0.011475,-0.011475,0
1.158333,-0.410000,-0.125000,-0.029053,-0.029053,0
1.161111,-0.415000,-0.003697,-0.051270,-0.051270,0
1.163889,-0.410000,0.090954,-0.076416,-0.076416,0
1.166667,-0.400000,0.089904,-0.102783,-0.102783,0
1.169444,-0.400000,-0.013953,-0.128906,-0.128906,0
1.172222,-0.395000,-0.131418,-0.152100,-0.152100,0
1.175000,-0.390000,-0.180000,-0.167236,-0.167236,0
1.177778,-0.405000,-0.141418,-0.166260,-0.166260,0
1.180556,-0.410000,-0.023953,-0.136719,-0.136719,0
1.183333,-0.390000,0.099904,-0.065186,-0.065186,0
1.186111,-0.390000,0.110954,0.059570,0.059570,0
1.188889,-0.385000,0.026303,0.239990,0.239990,0
1.191667,-0.385000,-0.100000,0.467285,0.467285,0
1.194444,-0.410000,-0.197721,0.718262,0.718262,0
1.197222,-0.405000,-0.159907,0.958496,0.958496,0
1.200000,-0.395000,-0.035000,1.148682,1.148682,0
1.202778,-0.390000,0.084907,1.253418,1.253418,1
1.205556,-0.375000,0.132721,1.251221,1.251221,0
1.208333,-0.390000,0.045000,1.139160,1.139160,0
1.211111,-0.395000,-0.086303,0.936279,0.936279,0
1.213889,-0.410000,-0.190954,0.678223,0.678223,0
1.216667,-0.400000,-0.169904,0.408936,0.408936,0
1.219444,-0.390000,-0.056047,0.169922,0.169922,0
1.222222,-0.390000,0.066418,-0.008789,-0.008789,0
1.225000,-0.385000,0.125000,-0.114502,-0.114502,0
1.227778,-0.405000,0.051418,-0.152344,-0.152344,0
1.230556,-0.415000,-0.081047,-0.140381,-0.140381,0
1.233333,-0.415000,-0.184904,-0.103027,-0.103027,0
1.236111,-0.400000,-0.180954,-0.063232,-0.063232,0
1.238889,-0.395000,-0.086303,-0.036621,-0.036621,0
1.241667,-0.405000,0.030000,-0.027832,-0.027832,0
1.244444,-0.415000,0.092721,-0.033691,-0.033691,0
1.247222,-0.420000,0.054907,-0.045654,-0.045654,0
1.250000,-0.420000,-0.060000,-0.055176,-0.055176,0
1.252778,-0.410000,-0.164907,-0.056885,-0.056885,0
1.255556,-0.415000,-0.202721,-0.050781,-0.050781,0
1.258333,-0.425000,-0.140000,-0.040283,-0.040283,0
1.261111,-0.420000,-0.008697,-0.031494,-0.031494,0
1.263889,-0.435000,0.065954,-0.028809,-0.028809,0
1.266667,-0.430000,0.059904,-0.033203,-0.033203,0
1.269444,-0.430000,-0.043953,-0.042969,-0.042969,0
1.272222,-0.420000,-0.156418,-0.053955,-0.053955,0
1.275000,-0.430000,-0.220000,-0.061523,-0.061523,0
1.277778,-0.450000,-0.186418,-0.063232,-0.063232,0
1.280556,-0.455000,-0.068953,-0.058594,-0.058594,0
1.283333,-0.450000,0.039904,-0.050049,-0.050049,0
1.286111,-0.435000,0.065954,-0.040771,-0.040771,0
1.288889,-0.445000,-0.033697,-0.033936,-0.033936,0
1.291667,-0.450000,-0.165000,-0.031250,-0.031250,0
1.294444,-0.455000,-0.242721,-0.032715,-0.032715,0
1.297222,-0.470000,-0.224907,-0.037109,-0.037109,0
1.300000,-0.460000,-0.100000,-0.041992,-0.041992,0
1.302778,-0.455000,0.019907,-0.045654,-0.045654,0
1.305556,-0.450000,0.057721,-0.046875,-0.046875,0
1.308333,-0.455000,-0.020000,-0.045654,-0.045654,0
1.311111,-0.470000,-0.161303,-0.042969,-0.042969,0
1.313889,-0.475000,-0.255954,-0.040283,-0.040283,0
1.316667,-0.460000,-0.229904,-0.039062,-0.039062,0
1.319444,-0.450000,-0.116047,-0.039795,-0.039795,0
1.322222,-0.445000,0.011418,-0.042236,-0.042236,0
1.325000,-0.440000,0.070000,-0.045898,-0.045898,0
1.327778,-0.435000,0.021418,-0.049316,-0.049316,0
1.330556,-0.440000,-0.106047,-0.051025,-0.051025,0
1.333333,-0.410000,-0.179904,-0.051025,-0.051025,0
1.336111,-0.395000,-0.175954,-0.048828,-0.048828,0
1.338889,-0.370000,-0.061303,-0.045654,-0.045654,0
1.341667,-0.365000,0.070000,-0.041992,-0.041992,0
1.344444,-0.360000,0.147721,-0.038818,-0.038818,0
1.347222,-0.365000,0.109907,-0.036133,-0.036133,0
1.350000,-0.340000,0.020000,-0.034424,-0.034424,0
1.352778,-0.325000,-0.079907,-0.032959,-0.032959,0
1.355556,-0.315000,-0.102721,-0.031738,-0.031738,0
1.358333,-0.320000,-0.035000,-0.030762,-0.030762,0
1.361111,-0.330000,0.081303,-0.030029,-0.030029,0
1.363889,-0.330000,0.170954,-0.029541,-0.029541,0
1.366667,-0.320000,0.169904,-0.029297,-0.029297,0
1.369444,-0.310000,0.076047,-0.028564,-0.028564,0
1.372222,-0.300000,-0.036418,-0.028076,-0.028076,0
1.375000,-0.300000,-0.090000,-0.027100,-0.027100,0
1.377778,-0.320000,-0.056418,-0.026367,-0.026367,0
1.380556,-0.320000,0.066047,-0.025391,-0.025391,0
1.383333,-0.315000,0.174904,-0.024658,-0.024658,0
1.386111,-0.305000,0.195954,-0.024414,-0.024414,0
1.388889,-0.305000,0.106303,-0.024414,-0.024414,0
1.391667,-0.295000,-0.010000,-0.024902,-0.024902,0
1.394444,-0.320000,-0.107721,-0.025635,-0.025635,0
1.397222,-0.330000,-0.084907,-0.026611,-0.026611,0
1.400000,-0.305000,0.055000,-0.028076,-0.028076,0
1.402778,-0.310000,0.164907,-0.030029,-0.030029,0
1.405556,-0.300000,0.207721,-0.031982,-0.031982,0
1.408333,-0.300000,0.135000,-0.034180,-0.034180,0
1.411111,-0.320000,-0.011303,-0.035645,-0.035645,0
1.413889,-0.325000,-0.105954,-0.037109,-0.037109,0
1.416667,-0.310000,-0.079904,-0.038330,-0.038330,0
1.419444,-0.305000,0.028953,-0.040039,-0.040039,0
1.422222,-0.315000,0.141418,-0.041992,-0.041992,0
1.425000,-0.305000,0.205000,-0.044434,-0.044434,0
1.427778,-0.315000,0.141418,-0.047363,-0.047363,0
1.430556,-0.315000,0.018953,-0.049805,-0.049805,0
1.433333,-0.310000,-0.079904,-0.052002,-0.052002,0
1.436111,-0.295000,-0.075954,-0.053711,-0.053711,0
1.438889,-0.290000,0.018697,-0.055420,-0.055420,0
1.441667,-0.305000,0.130000,-0.057373,-0.057373,0
1.444444,-0.310000,0.197721,-0.060059,-0.060059,0
1.447222,-0.320000,0.154907,-0.063232,-0.063232,0
1.450000,-0.315000,0.045000,-0.066650,-0.066650,0
1.452778,-0.300000,-0.054907,-0.070068,-0.070068,0
1.455556,-0.315000,-0.102721,-0.073486,-0.073486,0
1.458333,-0.315000,-0.030000,-0.076416,-0.076416,0
1.461111,-0.315000,0.096303,-0.079102,-0.079102,0
1.463889,-0.330000,0.170954,-0.081787,-0.081787,0
1.466667,-0.315000,0.174904,-0.083984,-0.083984,0
1.469444,-0.320000,0.066047,-0.086182,-0.086182,0
1.472222,-0.315000,-0.051418,-0.087891,-0.087891,0
1.475000,-0.325000,-0.115000,-0.089844,-0.089844,0
1.477778,-0.335000,-0.071418,-0.091553,-0.091553,0
1.480556,-0.340000,0.046047,-0.093262,-0.093262,0
1.483333,-0.335000,0.154904,-0.094971,-0.094971,0
1.486111,-0.335000,0.165954,-0.096191,-0.096191,0
1.488889,-0.330000,0.081303,-0.096680,-0.096680,0
1.491667,-0.325000,-0.040000,-0.095947,-0.095947,0
1.494444,-0.345000,-0.132721,-0.093506,-0.093506,0
1.497222,-0.350000,-0.104907,-0.089111,-0.089111,0
1.500000,-0.345000,0.015000,-0.082764,-0.082764,0
1.502778,-0.335000,0.139907,-0.074707,-0.074707,0
1.505556,-0.330000,0.177721,-0.064941,-0.064941,0
1.508333,-0.330000,0.105000,-0.053467,-0.053467,0
1.511111,-0.345000,-0.036303,-0.040527,-0.040527,0
1.513889,-0.345000,-0.125954,-0.026855,-0.026855,0
1.516667,-0.345000,-0.114904,-0.013184,-0.013184,0
1.519444,-0.320000,0.013953,-0.000244,-0.000244,0
1.522222,-0.330000,0.126418,0.010742,0.010742,0
1.525000,-0.335000,0.175000,0.019775,0.019775,0
1.527778,-0.340000,0.116418,0.026367,0.026367,0
1.530556,-0.355000,-0.021047,0.031250,0.031250,0
1.533333,-0.335000,-0.104904,0.035156,0.035156,0
1.536111,-0.330000,-0.110954,0.038086,0.038086,0
1.538889,-0.330000,-0.021303,0.040527,0.040527,0
1.541667,-0.335000,0.100000,0.042725,0.042725,0
1.544444,-0.355000,0.152721,0.044678,0.044678,0
1.547222,-0.360000,0.114907,0.046387,0.046387,0
1.550000,-0.355000,0.005000,0.047852,0.047852,0
1.552778,-0.350000,-0.104907,0.049072,0.049072,0
1.555556,-0.340000,-0.127721,0.049561,0.049561,0
1.558333,-0.345000,-0.060000,0.049561,0.049561,0
1.561111,-0.345000,0.066303,0.048584,0.048584,0
1.563889,-0.345000,0.155954,0.047363,0.047363,0
1.566667,-0.345000,0.144904,0.046143,0.046143,0
1.569444,-0.330000,0.056047,0.045410,0.045410,0
1.572222,-0.330000,-0.066418,0.045410,0.045410,0
1.575000,-0.335000,-0.125000,0.046143,0.046143,0
1.577778,-0.345000,-0.081418,0.047119,0.047119,0
1.580556,-0.350000,0.036047,0.047607,0.047607,0
1.583333,-0.350000,0.139904,0.047363,0.047363,0
1.586111,-0.340000,0.160954,0.046387,0.046387,0
1.588889,-0.330000,0.081303,0.044434,0.044434,0
1.591667,-0.345000,-0.060000,0.042725,0.042725,0
1.594444,-0.345000,-0.132721,0.041504,0.041504,0
1.597222,-0.355000,-0.109907,0.041260,0.041260,0
1.600000,-0.350000,0.010000,0.042236,0.042236,0
1.602778,-0.340000,0.134907,0.044434,0.044434,0
1.605556,-0.330000,0.177721,0.046875,0.046875,0
1.608333,-0.340000,0.095000,0.049561,0.049561,0
1.611111,-0.340000,-0.031303,0.051270,0.051270,0
1.613889,-0.340000,-0.120954,0.052002,0.052002,0
1.616667,-0.330000,-0.099904,0.051514,0.051514,0
1.619444,-0.335000,-0.001047,0.049561,0.049561,0
1.622222,-0.330000,0.126418,0.046875,0.046875,0
1.625000,-0.335000,0.175000,0.043701,0.043701,0
1.627778,-0.345000,0.111418,0.041016,0.041016,0
1.630556,-0.345000,-0.011047,0.039307,0.039307,0
1.633333,-0.340000,-0.109904,0.038574,0.038574,0
1.636111,-0.330000,-0.110954,0.038086,0.038086,0
1.638889,-0.315000,-0.006303,0.037598,0.037598,0
1.641667,-0.295000,0.140000,0.036377,0.036377,0
1.644444,-0.300000,0.207721,0.033936,0.033936,0
1.647222,-0.295000,0.179907,0.031006,0.031006,0
1.650000,-0.285000,0.075000,0.027832,0.027832,0
1.652778,-0.275000,-0.029907,0.024902,0.024902,0
1.655556,-0.265000,-0.052721,0.022705,0.022705,0
1.658333,-0.265000,0.020000,0.020752,0.020752,0
1.661111,-0.265000,0.146303,0.019287,0.019287,0
1.663889,-0.255000,0.245954,0.017822,0.017822,0
1.666667,-0.250000,0.239904,0.016357,0.016357,0
1.669444,-0.240000,0.146047,0.014893,0.014893,0
1.672222,-0.225000,0.038582,0.013916,0.013916,0
1.675000,-0.215000,-0.005000,0.013672,0.013672,0
1.677778,-0.240000,0.023582,0.013916,0.013916,0
1.680556,-0.245000,0.141047,0.014648,0.014648,0
1.683333,-0.240000,0.249904,0.015381,0.015381,0
1.686111,-0.245000,0.255954,0.016113,0.016113,0
1.688889,-0.235000,0.176303,0.016602,0.016602,0
1.691667,-0.245000,0.040000,0.016846,0.016846,0
1.694444,-0.250000,-0.037721,0.016602,0.016602,0
1.697222,-0.275000,-0.029907,0.016602,0.016602,0
1.700000,-0.275000,0.085000,0.016602,0.016602,0
1.702778,-0.265000,0.209907,0.016846,0.016846,0
1.705556,-0.250000,0.257721,0.017090,0.017090,0
1.708333,-0.225000,0.210000,0.017090,0.017090,0
1.711111,-0.220000,0.088697,0.016357,0.016357,0
1.713889,-0.230000,-0.010954,0.014648,0.014648,0
1.716667,-0.265000,-0.034904,0.011963,0.011963,0
1.719444,-0.270000,0.063953,0.008545,0.008545,0
1.722222,-0.280000,0.176418,0.004883,0.004883,0
1.725000,-0.285000,0.225000,0.001709,0.001709,0
1.727778,-0.305000,0.151418,0.000244,0.000244,0
1.730556,-0.320000,0.013953,0.000977,0.000977,0
1.733333,-0.340000,-0.109904,0.003662,0.003662,0
1.736111,-0.330000,-0.110954,0.007812,0.007812,0
1.738889,-0.335000,-0.026303,0.011963,0.011963,0
1.741667,-0.335000,0.100000,0.014893,0.014893,0
1.744444,-0.355000,0.152721,0.016113,0.016113,0
1.747222,-0.370000,0.104907,0.015381,0.015381,0
1.750000,-0.360000,-0.000000,0.013672,0.013672,0
1.752778,-0.345000,-0.099907,0.011963,0.011963,0
1.755556,-0.350000,-0.137721,0.010254,0.010254,0
1.758333,-0.355000,-0.070000,0.009521,0.009521,0
1.761111,-0.365000,0.046303,0.008789,0.008789,0
1.763889,-0.375000,0.125954,0.008301,0.008301,0
1.766667,-0.380000,0.109904,0.007568,0.007568,0
1.769444,-0.370000,0.016047,0.006592,0.006592,0
1.772222,-0.365000,-0.101418,0.005859,0.005859,0
1.775000,-0.365000,-0.155000,0.005615,0.005615,0
1.777778,-0.380000,-0.116418,0.006592,0.006592,0
1.780556,-0.385000,0.001047,0.008545,0.008545,0
1.783333,-0.380000,0.109904,0.011475,0.011475,0
1.786111,-0.375000,0.125954,0.014160,0.014160,0
1.788889,-0.355000,0.056303,0.016602,0.016602,0
1.791667,-0.370000,-0.085000,0.017334,0.017334,0
1.794444,-0.390000,-0.177721,0.016846,0.016846,0
1.797222,-0.405000,-0.159907,0.014648,0.014648,0
1.800000,-0.410000,-0.050000,0.011963,0.011963,0
1.802778,-0.435000,0.039907,0.009766,0.009766,0
1.805556,-0.465000,0.042721,0.009521,0.009521,0
1.808333,-0.490000,-0.055000,0.011963,0.011963,0
1.811111,-0.520000,-0.211303,0.017822,0.017822,0
1.813889,-0.555000,-0.335954,0.026367,0.026367,0
1.816667,-0.570000,-0.339904,0.036621,0.036621,0
1.819444,-0.525000,-0.191047,0.047363,0.047363,0
1.822222,-0.405000,0.051418,0.057129,0.057129,0
1.825000,-0.250000,0.260000,0.065186,0.065186,0
1.827778,-0.090000,0.366418,0.071533,0.071533,0
1.830556,0.120000,0.453953,0.076416,0.076416,0
1.833333,0.410000,0.640096,0.081055,0.081055,0
1.836111,0.690000,0.909046,0.085938,0.085938,0
1.838889,0.885000,1.193697,0.091309,0.091309,0
1.841667,0.960000,1.395000,0.097168,0.097168,0
1.844444,0.850000,1.357721,0.103516,0.103516,0
1.847222,0.520000,0.994907,0.109619,0.109619,0
1.850000,0.050000,0.410000,0.114746,0.114746,0
1.852778,-0.320000,-0.074907,0.118164,0.118164,0
1.855556,-0.500000,-0.287721,0.118896,0.118896,0
1.858333,-0.505000,-0.220000,0.116455,0.116455,0
1.861111,-0.445000,-0.033697,0.110352,0.110352,0
1.863889,-0.415000,0.085954,0.102051,0.102051,0
1.866667,-0.395000,0.094904,0.092773,0.092773,0
1.869444,-0.390000,-0.003953,0.085449,0.085449,0
1.872222,-0.395000,-0.131418,0.082031,0.082031,0
1.875000,-0.390000,-0.180000,0.083252,0.083252,0
1.877778,-0.395000,-0.131418,0.088867,0.088867,0
1.880556,-0.405000,-0.018953,0.097168,0.097168,0
1.883333,-0.395000,0.094904,0.105225,0.105225,0
1.886111,-0.405000,0.095954,0.109863,0.109863,0
1.888889,-0.390000,0.021303,0.109131,0.109131,0
1.891667,-0.395000,-0.110000,0.102295,0.102295,0
1.894444,-0.395000,-0.182721,0.089844,0.089844,0
1.897222,-0.410000,-0.164907,0.074463,0.074463,0
1.900000,-0.405000,-0.045000,0.058350,0.058350,0
1.902778,-0.400000,0.074907,0.044189,0.044189,0
1.905556,-0.400000,0.107721,0.032715,0.032715,0
1.908333,-0.415000,0.020000,0.023926,0.023926,0
1.911111,-0.405000,-0.096303,0.016357,0.016357,0
1.913889,-0.420000,-0.200954,0.009033,0.009033,0
1.916667,-0.415000,-0.184904,0.001221,0.001221,0
1.919444,-0.405000,-0.071047,-0.006348,-0.006348,0
1.922222,-0.405000,0.051418,-0.012207,-0.012207,0
1.925000,-0.420000,0.090000,-0.015137,-0.015137,0
1.927778,-0.420000,0.036418,-0.014404,-0.014404,0
1.930556,-0.435000,-0.101047,-0.011475,-0.011475,0
1.933333,-0.420000,-0.189904,-0.008545,-0.008545,0
1.936111,-0.410000,-0.190954,-0.008789,-0.008789,0
1.938889,-0.410000,-0.101303,-0.013916,-0.013916,0
1.941667,-0.405000,0.030000,-0.023438,-0.023438,0
1.944444,-0.425000,0.082721,-0.034912,-0.034912,0
1.947222,-0.430000,0.044907,-0.043457,-0.043457,0
1.950000,-0.420000,-0.060000,-0.045410,-0.045410,0
1.952778,-0.415000,-0.169907,-0.039307,-0.039307,0
1.955556,-0.410000,-0.197721,-0.028076,-0.028076,0
1.958333,-0.410000,-0.125000,-0.016846,-0.016846,0
1.961111,-0.425000,-0.013697,-0.011475,-0.011475,0
1.963889,-0.420000,0.080954,-0.016113,-0.016113,0
1.966667,-0.400000,0.089904,-0.030762,-0.030762,0
1.969444,-0.395000,-0.008953,-0.050537,-0.050537,0
1.972222,-0.400000,-0.136418,-0.069580,-0.069580,0
1.975000,-0.400000,-0.190000,-0.083008,-0.083008,0
1.977778,-0.395000,-0.131418,-0.090576,-0.090576,0
1.980556,-0.415000,-0.028953,-0.096924,-0.096924,0
1.983333,-0.405000,0.084904,-0.110352,-0.110352,0
1.986111,-0.390000,0.110954,-0.136475,-0.136475,0
1.988889,-0.400000,0.011303,-0.174316,-0.174316,0
1.991667,-0.400000,-0.115000,-0.210693,-0.210693,0
1.994444,-0.415000,-0.202721,-0.222900,-0.222900,0
1.997222,-0.425000,-0.179907,-0.181885,-0.181885,0
2.000000,-0.425000,-0.065000,-0.065186,-0.065186,0
2.002778,-0.415000,0.059907,0.135498,0.135498,0
2.005556,-0.415000,0.092721,0.404785,0.404785,0
2.008333,-0.410000,0.025000,0.703369,0.703369,0
2.011111,-0.425000,-0.116303,0.976074,0.976074,0
2.013889,-0.425000,-0.205954,1.164551,1.164551,0
2.016667,-0.420000,-0.189904,1.225098,1.225098,1
2.019444,-0.415000,-0.081047,1.141357,1.141357,0
2.022222,-0.400000,0.056418,0.930420,0.930420,0
2.025000,-0.400000,0.110000,0.638428,0.638428,0
2.027778,-0.410000,0.046418,0.327881,0.327881,0
2.030556,-0.425000,-0.091047,0.060059,0.060059,0
2.033333,-0.410000,-0.179904,-0.121582,-0.121582,0
2.036111,-0.405000,-0.185954,-0.202148,-0.202148,0
2.038889,-0.395000,-0.086303,-0.194824,-0.194824,0
2.041667,-0.400000,0.035000,-0.133057,-0.133057,0
2.044444,-0.400000,0.107721,-0.057373,-0.057373,0
2.047222,-0.405000,0.069907,-0.000977,-0.000977,0
2.050000,-0.385000,-0.025000,0.019287,0.019287,0
2.052778,-0.400000,-0.154907,0.004395,0.004395,0
2.055556,-0.390000,-0.177721,-0.030518,-0.030518,0
2.058333,-0.390000,-0.105000,-0.066406,-0.066406,0
2.061111,-0.400000,0.011303,-0.087402,-0.087402,0
2.063889,-0.415000,0.085954,-0.087158,-0.087158,0
2.066667,-0.405000,0.084904,-0.069336,-0.069336,0
2.069444,-0.405000,-0.018953,-0.045166,-0.045166,0
2.072222,-0.410000,-0.146418,-0.026123,-0.026123,0
2.075000,-0.415000,-0.205000,-0.020508,-0.020508,0
2.077778,-0.420000,-0.156418,-0.028809,-0.028809,0
2.080556,-0.420000,-0.033953,-0.045898,-0.045898,0
2.083333,-0.425000,0.064904,-0.063721,-0.063721,0
2.086111,-0.415000,0.085954,-0.074707,-0.074707,0
2.088889,-0.415000,-0.003697,-0.075195,-0.075195,0
2.091667,-0.410000,-0.125000,-0.067139,-0.067139,0
2.094444,-0.435000,-0.222721,-0.055664,-0.055664,0
2.097222,-0.430000,-0.184907,-0.046631,-0.046631,0
2.100000,-0.435000,-0.075000,-0.044434,-0.044434,0
2.102778,-0.420000,0.054907,-0.049072,-0.049072,0
2.105556,-0.420000,0.087721,-0.057617,-0.057617,0
2.108333,-0.420000,0.015000,-0.066162,-0.066162,0
2.111111,-0.420000,-0.111303,-0.070312,-0.070312,0
2.113889,-0.425000,-0.205954,-0.068604,-0.068604,0
2.116667,-0.425000,-0.194904,-0.062500,-0.062500,0
2.119444,-0.415000,-0.081047,-0.055176,-0.055176,0
2.122222,-0.395000,0.061418,-0.049805,-0.049805,0
2.125000,-0.395000,0.115000,-0.048340,-0.048340,0
2.127778,-0.390000,0.066418,-0.050781,-0.050781,0
2.130556,-0.375000,-0.041047,-0.054932,-0.054932,0
2.133333,-0.360000,-0.129904,-0.057861,-0.057861,0
2.136111,-0.340000,-0.120954,-0.057617,-0.057617,0
2.138889,-0.335000,-0.026303,-0.053711,-0.053711,0
2.141667,-0.330000,0.105000,-0.047607,-0.047607,0
2.144444,-0.335000,0.172721,-0.040771,-0.040771,0
2.147222,-0.335000,0.139907,-0.035400,-0.035400,0
2.150000,-0.325000,0.035000,-0.032227,-0.032227,0
2.152778,-0.320000,-0.074907,-0.031982,-0.031982,0
2.155556,-0.305000,-0.092721,-0.033203,-0.033203,0
2.158333,-0.305000,-0.020000,-0.035156,-0.035156,0
2.161111,-0.315000,0.096303,-0.037354,-0.037354,0
2.163889,-0.310000,0.190954,-0.039062,-0.039062,0
2.166667,-0.305000,0.184904,-0.041016,-0.041016,0
2.169444,-0.300000,0.086047,-0.042969,-0.042969,0
2.172222,-0.300000,-0.036418,-0.045410,-0.045410,0
2.175000,-0.300000,-0.090000,-0.048340,-0.048340,0
2.177778,-0.310000,-0.046418,-0.051514,-0.051514,0
2.180556,-0.310000,0.076047,-0.053711,-0.053711,0
2.183333,-0.310000,0.179904,-0.054932,-0.054932,0
2.186111,-0.315000,0.185954,-0.054688,-0.054688,0
2.188889,-0.300000,0.111303,-0.052734,-0.052734,0
2.191667,-0.305000,-0.020000,-0.049561,-0.049561,0
2.194444,-0.315000,-0.102721,-0.046143,-0.046143,0
2.197222,-0.320000,-0.074907,-0.042969,-0.042969,0
2.200000,-0.325000,0.035000,-0.041016,-0.041016,0
2.202778,-0.310000,0.164907,-0.040283,-0.040283,0
2.205556,-0.305000,0.202721,-0.040283,-0.040283,0
2.208333,-0.305000,0.130000,-0.040283,-0.040283,0
2.211111,-0.320000,-0.011303,-0.039795,-0.039795,0
2.213889,-0.325000,-0.105954,-0.038086,-0.038086,0
2.216667,-0.305000,-0.074904,-0.035400,-0.035400,0
2.219444,-0.310000,0.023953,-0.031982,-0.031982,0
2.222222,-0.295000,0.161418,-0.028809,-0.028809,0
2.225000,-0.310000,0.200000,-0.026367,-0.026367,0
2.227778,-0.325000,0.131418,-0.025391,-0.025391,0
2.230556,-0.330000,0.003953,-0.025635,-0.025635,0
2.233333,-0.320000,-0.089904,-0.027588,-0.027588,0
2.236111,-0.320000,-0.100954,-0.030762,-0.030762,0
2.238889,-0.320000,-0.011303,-0.034668,-0.034668,0
2.241667,-0.325000,0.110000,-0.038818,-0.038818,0
2.244444,-0.350000,0.157721,-0.042969,-0.042969,0
2.247222,-0.350000,0.124907,-0.046387,-0.046387,0
2.250000,-0.340000,0.020000,-0.048584,-0.048584,0
2.252778,-0.335000,-0.089907,-0.049805,-0.049805,0
2.255556,-0.330000,-0.117721,-0.050781,-0.050781,0
2.258333,-0.335000,-0.050000,-0.051514,-0.051514,0
2.261111,-0.340000,0.071303,-0.053223,-0.053223,0
2.263889,-0.360000,0.140954,-0.055176,-0.055176,0
2.266667,-0.350000,0.139904,-0.057617,-0.057617,0
2.269444,-0.350000,0.036047,-0.059814,-0.059814,0
2.272222,-0.355000,-0.091418,-0.061035,-0.061035,0
2.275000,-0.360000,-0.150000,-0.061523,-0.061523,0
2.277778,-0.355000,-0.091418,-0.061279,-0.061279,0
2.280556,-0.365000,0.021047,-0.060791,-0.060791,0
2.283333,-0.355000,0.134904,-0.060547,-0.060547,0
2.286111,-0.350000,0.150954,-0.060059,-0.060059,0
2.288889,-0.340000,0.071303,-0.059570,-0.059570,0
2.291667,-0.355000,-0.070000,-0.057861,-0.057861,0
2.294444,-0.350000,-0.137721,-0.054199,-0.054199,0
2.297222,-0.365000,-0.119907,-0.047852,-0.047852,0
2.300000,-0.365000,-0.005000,-0.038818,-0.038818,0
2.302778,-0.350000,0.124907,-0.027832,-0.027832,0
2.305556,-0.355000,0.152721,-0.015625,-0.015625,0
2.308333,-0.350000,0.085000,-0.003174,-0.003174,0
2.311111,-0.370000,-0.061303,0.007812,0.007812,0
2.313889,-0.380000,-0.160954,0.017090,0.017090,0
2.316667,-0.370000,-0.139904,0.024170,0.024170,0
2.319444,-0.360000,-0.026047,0.029053,0.029053,0
2.322222,-0.365000,0.091418,0.032227,0.032227,0
2.325000,-0.360000,0.150000,0.034668,0.034668,0
2.327778,-0.365000,0.091418,0.037598,0.037598,0
2.330556,-0.380000,-0.046047,0.041016,0.041016,0
2.333333,-0.370000,-0.139904,0.045166,0.045166,0
2.336111,-0.365000,-0.145954,0.049316,0.049316,0
2.338889,-0.350000,-0.041303,0.052979,0.052979,0
2.341667,-0.350000,0.085000,0.055176,0.055176,0
2.344444,-0.350000,0.157721,0.055664,0.055664,0
2.347222,-0.370000,0.104907,0.054932,0.054932,0
2.350000,-0.365000,-0.005000,0.053467,0.053467,0
2.352778,-0.345000,-0.099907,0.052002,0.052002,0
2.355556,-0.345000,-0.132721,0.050781,0.050781,0
2.358333,-0.340000,-0.055000,0.049805,0.049805,0
2.361111,-0.355000,0.056303,0.048828,0.048828,0
2.363889,-0.365000,0.135954,0.047607,0.047607,0
2.366667,-0.360000,0.129904,0.046143,0.046143,0
2.369444,-0.355000,0.031047,0.044434,0.044434,0
2.372222,-0.355000,-0.091418,0.043213,0.043213,0
2.375000,-0.355000,-0.145000,0.042236,0.042236,0
2.377778,-0.375000,-0.111418,0.041992,0.041992,0
2.380556,-0.385000,0.001047,0.041992,0.041992,0
2.383333,-0.355000,0.134904,0.042480,0.042480,0
2.386111,-0.360000,0.140954,0.043457,0.043457,0
2.388889,-0.355000,0.056303,0.044434,0.044434,0
2.391667,-0.360000,-0.075000,0.045166,0.045166,0
2.394444,-0.360000,-0.147721,0.045898,0.045898,0
2.397222,-0.370000,-0.124907,0.046143,0.046143,0
2.400000,-0.360000,0.000000,0.045410,0.045410,0
2.402778,-0.345000,0.129907,0.043457,0.043457,0
2.405556,-0.355000,0.152721,0.040527,0.040527,0
2.408333,-0.345000,0.090000,0.036377,0.036377,0
2.411111,-0.345000,-0.036303,0.031738,0.031738,0
2.413889,-0.345000,-0.125954,0.027100,0.027100,0
2.416667,-0.340000,-0.109904,0.023193,0.023193,0
2.419444,-0.310000,0.023953,0.020264,0.020264,0
2.422222,-0.305000,0.151418,0.018555,0.018555,0
2.425000,-0.305000,0.205000,0.017822,0.017822,0
2.427778,-0.310000,0.146418,0.017578,0.017578,0
2.430556,-0.305000,0.028953,0.017578,0.017578,0
2.433333,-0.290000,-0.059904,0.017090,0.017090,0
2.436111,-0.285000,-0.065954,0.015381,0.015381,0
2.438889,-0.275000,0.033697,0.012451,0.012451,0
2.441667,-0.280000,0.155000,0.008301,0.008301,0
2.444444,-0.280000,0.227721,0.003906,0.003906,0
2.447222,-0.275000,0.199907,0.000000,0.000000,0
2.450000,-0.265000,0.095000,-0.002441,-0.002441,0
2.452778,-0.255000,-0.009907,-0.002686,-0.002686,0
2.455556,-0.245000,-0.032721,-0.001221,-0.001221,0
2.458333,-0.260000,0.025000,0.000977,0.000977,0
2.461111,-0.265000,0.146303,0.003418,0.003418,0
2.463889,-0.275000,0.225954,0.005127,0.005127,0
2.466667,-0.280000,0.209904,0.005371,0.005371,0
2.469444,-0.265000,0.121047,0.004395,0.004395,0
2.472222,-0.270000,-0.006418,0.002686,0.002686,0
2.475000,-0.275000,-0.065000,0.000732,0.000732,0
2.477778,-0.280000,-0.016418,-0.001221,-0.001221,0
2.480556,-0.275000,0.111047,-0.003174,-0.003174,0
2.483333,-0.280000,0.209904,-0.004883,-0.004883,0
2.486111,-0.275000,0.225954,-0.006592,-0.006592,0
2.488889,-0.265000,0.146303,-0.008301,-0.008301,0
2.491667,-0.255000,0.030000,-0.009766,-0.009766,0
2.494444,-0.240000,-0.027721,-0.010986,-0.010986,0
2.497222,-0.260000,-0.014907,-0.011719,-0.011719,0
2.500000,-0.280000,0.080000,-0.011963,-0.011963,0
2.502778,-0.310000,0.164907,-0.011963,-0.011963,0
2.505556,-0.310000,0.197721,-0.010986,-0.010986,0
2.508333,-0.345000,0.090000,-0.009766,-0.009766,0
2.511111,-0.360000,-0.051303,-0.007812,-0.007812,0
2.513889,-0.380000,-0.160954,-0.005371,-0.005371,0
2.516667,-0.385000,-0.154904,-0.003174,-0.003174,0
2.519444,-0.380000,-0.046047,-0.000977,-0.000977,0
2.522222,-0.370000,0.086418,0.000732,0.000732,0
2.525000,-0.375000,0.135000,0.002197,0.002197,0
2.527778,-0.385000,0.071418,0.003174,0.003174,0
2.530556,-0.390000,-0.056047,0.003906,0.003906,0
2.533333,-0.395000,-0.164904,0.004639,0.004639,0
2.536111,-0.385000,-0.165954,0.004395,0.004395,0
2.538889,-0.385000,-0.076303,0.003418,0.003418,0
2.541667,-0.385000,0.050000,0.001221,0.001221,0
2.544444,-0.395000,0.112721,-0.001953,-0.001953,0
2.547222,-0.405000,0.069907,-0.005615,-0.005615,0
2.550000,-0.400000,-0.040000,-0.008789,-0.008789,0
2.552778,-0.375000,-0.129907,-0.010986,-0.010986,0
2.555556,-0.375000,-0.162721,-0.011719,-0.011719,0
2.558333,-0.390000,-0.105000,-0.010986,-0.010986,0
2.561111,-0.395000,0.016303,-0.009521,-0.009521,0
2.563889,-0.415000,0.085954,-0.007568,-0.007568,0
2.566667,-0.405000,0.084904,-0.005859,-0.005859,0
2.569444,-0.400000,-0.013953,-0.004639,-0.004639,0
2.572222,-0.390000,-0.126418,-0.004150,-0.004150,0
2.575000,-0.405000,-0.195000,-0.003662,-0.003662,0
2.577778,-0.425000,-0.161418,-0.002930,-0.002930,0
2.580556,-0.460000,-0.073953,-0.001465,-0.001465,0
2.583333,-0.475000,0.014904,0.001709,0.001709,0
2.586111,-0.505000,-0.004046,0.006592,0.006592,0
2.588889,-0.510000,-0.098697,0.013184,0.013184,0
2.591667,-0.525000,-0.240000,0.020996,0.020996,0
2.594444,-0.540000,-0.327721,0.029297,0.029297,0
2.597222,-0.600000,-0.354907,0.037354,0.037354,0
2.600000,-0.645000,-0.285000,0.044189,0.044189,0
2.602778,-0.630000,-0.155093,0.049805,0.049805,0
2.605556,-0.575000,-0.067279,0.054443,0.054443,0
2.608333,-0.495000,-0.060000,0.058594,0.058594,0
2.611111,-0.385000,-0.076303,0.062988,0.062988,0
2.613889,-0.270000,-0.050954,0.067871,0.067871,0
2.616667,-0.115000,0.115096,0.073486,0.073486,0
2.619444,0.090000,0.423953,0.079102,0.079102,0
2.622222,0.370000,0.826418,0.084229,0.084229,0
2.625000,0.635000,1.145000,0.088135,0.088135,0
2.627778,0.810000,1.266418,0.090576,0.090576,0
2.630556,0.860000,1.193953,0.092041,0.092041,0
2.633333,0.770000,1.000096,0.092285,0.092285,0
2.636111,0.475000,0.694046,0.091309,0.091309,0
2.638889,0.065000,0.373697,0.089600,0.089600,0
2.641667,-0.305000,0.130000,0.086426,0.086426,0
2.644444,-0.500000,0.007721,0.082520,0.082520,0
2.647222,-0.520000,-0.045093,0.078125,0.078125,0
2.650000,-0.475000,-0.115000,0.074219,0.074219,0
2.652778,-0.410000,-0.164907,0.071777,0.071777,0
2.655556,-0.390000,-0.177721,0.072021,0.072021,0
2.658333,-0.390000,-0.105000,0.075439,0.075439,0
2.661111,-0.400000,0.011303,0.081299,0.081299,0
2.663889,-0.410000,0.090954,0.088623,0.088623,0
2.666667,-0.405000,0.084904,0.094971,0.094971,0
2.669444,-0.385000,0.001047,0.097656,0.097656,0
2.672222,-0.390000,-0.126418,0.094482,0.094482,0
2.675000,-0.395000,-0.185000,0.083984,0.083984,0
2.677778,-0.405000,-0.141418,0.066162,0.066162,0
2.680556,-0.410000,-0.023953,0.043213,0.043213,0
2.683333,-0.405000,0.084904,0.018799,0.018799,0
2.686111,-0.400000,0.100954,-0.002930,-0.002930,0
2.688889,-0.390000,0.021303,-0.018799,-0.018799,0
2.691667,-0.395000,-0.110000,-0.027100,-0.027100,0
2.694444,-0.410000,-0.197721,-0.028564,-0.028564,0
2.697222,-0.415000,-0.169907,-0.026367,-0.026367,0
2.700000,-0.410000,-0.050000,-0.024170,-0.024170,0
2.702778,-0.395000,0.079907,-0.024658,-0.024658,0
2.705556,-0.405000,0.102721,-0.029053,-0.029053,0
2.708333,-0.410000,0.025000,-0.036133,-0.036133,0
2.711111,-0.405000,-0.096303,-0.043213,-0.043213,0
2.713889,-0.405000,-0.185954,-0.046875,-0.046875,0
2.716667,-0.410000,-0.179904,-0.045654,-0.045654,0
2.719444,-0.390000,-0.056047,-0.040527,-0.040527,0
2.722222,-0.385000,0.071418,-0.034180,-0.034180,0
2.725000,-0.390000,0.120000,-0.030273,-0.030273,0
2.727778,-0.395000,0.061418,-0.031250,-0.031250,0
2.730556,-0.400000,-0.066047,-0.037109,-0.037109,0
2.733333,-0.400000,-0.169904,-0.045898,-0.045898,0
2.736111,-0.400000,-0.180954,-0.053467,-0.053467,0
2.738889,-0.395000,-0.086303,-0.056641,-0.056641,0
2.741667,-0.395000,0.040000,-0.053955,-0.053955,0
2.744444,-0.405000,0.102721,-0.047852,-0.047852,0
2.747222,-0.405000,0.069907,-0.042725,-0.042725,0
2.750000,-0.400000,-0.040000,-0.044922,-0.044922,0
2.752778,-0.395000,-0.149907,-0.058350,-0.058350,0
2.755556,-0.385000,-0.172721,-0.083252,-0.083252,0
2.758333,-0.375000,-0.090000,-0.115967,-0.115967,0
2.761111,-0.385000,0.026303,-0.149170,-0.149170,0
2.763889,-0.395000,0.105954,-0.176270,-0.176270,0
2.766667,-0.390000,0.099904,-0.194092,-0.194092,0
2.769444,-0.385000,0.001047,-0.203613,-0.203613,0
2.772222,-0.375000,-0.111418,-0.210449,-0.210449,0
2.775000,-0.385000,-0.175000,-0.220215,-0.220215,0
2.777778,-0.395000,-0.131418,-0.233643,-0.233643,0
2.780556,-0.395000,-0.008953,-0.242676,-0.242676,0
2.783333,-0.385000,0.104904,-0.229980,-0.229980,0
2.786111,-0.375000,0.125954,-0.173096,-0.173096,0
2.788889,-0.375000,0.036303,-0.052002,-0.052002,0
2.791667,-0.385000,-0.100000,0.139893,0.139893,0
2.794444,-0.395000,-0.182721,0.390625,0.390625,0
2.797222,-0.390000,-0.144907,0.666504,0.666504,0
2.800000,-0.390000,-0.030000,0.917969,0.917969,0
2.802778,-0.365000,0.109907,1.093262,1.093262,0
2.805556,-0.375000,0.132721,1.151611,1.151611,1
2.808333,-0.385000,0.050000,1.077148,1.077148,0
2.811111,-0.395000,-0.086303,0.883545,0.883545,0
2.813889,-0.380000,-0.160954,0.612305,0.612305,0
2.816667,-0.385000,-0.154904,0.320557,0.320557,0
2.819444,-0.375000,-0.041047,0.065186,0.065186,0
2.822222,-0.380000,0.076418,-0.112549,-0.112549,0
2.825000,-0.390000,0.120000,-0.195801,-0.195801,0
2.827778,-0.380000,0.076418,-0.194824,-0.194824,0
2.830556,-0.375000,-0.041047,-0.138916,-0.138916,0
2.833333,-0.375000,-0.144904,-0.065674,-0.065674,0
2.836111,-0.375000,-0.155954,-0.007812,-0.007812,0
2.838889,-0.375000,-0.066303,0.016602,0.016602,0
2.841667,-0.380000,0.055000,0.006592,0.006592,0
2.844444,-0.390000,0.117721,-0.025391,-0.025391,0
2.847222,-0.390000,0.084907,-0.061035,-0.061035,0
2.850000,-0.365000,-0.005000,-0.083740,-0.083740,0
2.852778,-0.370000,-0.124907,-0.086426,-0.086426,0
2.855556,-0.375000,-0.162721,-0.071289,-0.071289,0
2.858333,-0.385000,-0.100000,-0.048096,-0.048096,0
2.861111,-0.390000,0.021303,-0.028320,-0.028320,0
2.863889,-0.390000,0.110954,-0.020508,-0.020508,0
2.866667,-0.375000,0.114904,-0.026367,-0.026367,0
2.869444,-0.365000,0.021047,-0.041504,-0.041504,0
2.872222,-0.385000,-0.121418,-0.058350,-0.058350,0
2.875000,-0.380000,-0.170000,-0.069580,-0.069580,0
2.877778,-0.390000,-0.126418,-0.071045,-0.071045,0
2.880556,-0.375000,0.011047,-0.063721,-0.063721,0
2.883333,-0.375000,0.114904,-0.051758,-0.051758,0
2.886111,-0.365000,0.135954,-0.040527,-0.040527,0
2.888889,-0.370000,0.041303,-0.034180,-0.034180,0
2.891667,-0.385000,-0.100000,-0.033691,-0.033691,0
2.894444,-0.395000,-0.182721,-0.037354,-0.037354,0
2.897222,-0.385000,-0.139907,-0.041748,-0.041748,0
2.900000,-0.385000,-0.025000,-0.044434,-0.044434,0
2.902778,-0.370000,0.104907,-0.043945,-0.043945,0
2.905556,-0.365000,0.142721,-0.040527,-0.040527,0
2.908333,-0.370000,0.065000,-0.036621,-0.036621,0
2.911111,-0.375000,-0.066303,-0.034180,-0.034180,0
2.913889,-0.350000,-0.130954,-0.034180,-0.034180,0
2.916667,-0.335000,-0.104904,-0.036621,-0.036621,0
2.919444,-0.320000,0.013953,-0.040039,-0.040039,0
2.922222,-0.315000,0.141418,-0.042480,-0.042480,0
2.925000,-0.320000,0.190000,-0.042236,-0.042236,0
2.927778,-0.325000,0.131418,-0.038818,-0.038818,0
2.930556,-0.315000,0.018953,-0.033203,-0.033203,0
2.933333,-0.295000,-0.064904,-0.027100,-0.027100,0
2.936111,-0.285000,-0.065954,-0.022461,-0.022461,0
2.938889,-0.300000,0.008697,-0.020508,-0.020508,0
2.941667,-0.295000,0.140000,-0.021240,-0.021240,0
2.944444,-0.285000,0.222721,-0.023438,-0.023438,0
2.947222,-0.285000,0.189907,-0.025879,-0.025879,0
2.950000,-0.280000,0.080000,-0.027344,-0.027344,0
2.952778,-0.270000,-0.024907,-0.026855,-0.026855,0
2.955556,-0.280000,-0.067721,-0.025391,-0.025391,0
2.958333,-0.290000,-0.005000,-0.023438,-0.023438,0
2.961111,-0.295000,0.116303,-0.021973,-0.021973,0
2.963889,-0.295000,0.205954,-0.021240,-0.021240,0
2.966667,-0.290000,0.199904,-0.021484,-0.021484,0
2.969444,-0.280000,0.106047,-0.021973,-0.021973,0
2.972222,-0.290000,-0.026418,-0.022217,-0.022217,0
2.975000,-0.295000,-0.085000,-0.021973,-0.021973,0
2.977778,-0.310000,-0.046418,-0.020996,-0.020996,0
2.980556,-0.295000,0.091047,-0.020020,-0.020020,0
2.983333,-0.285000,0.204904,-0.019287,-0.019287,0
2.986111,-0.280000,0.220954,-0.019287,-0.019287,0
2.988889,-0.275000,0.136303,-0.019531,-0.019531,0
2.991667,-0.295000,-0.010000,-0.019775,-0.019775,0
2.994444,-0.305000,-0.092721,-0.019531,-0.019531,0
2.997222,-0.300000,-0.054907,-0.019043,-0.019043,0
3.000000,-0.295000,0.065000,-0.017822,-0.017822,0
3.002778,-0.295000,0.179907,-0.016602,-0.016602,0
3.005556,-0.285000,0.222721,-0.015869,-0.015869,0
3.008333,-0.300000,0.135000,-0.015625,-0.015625,0
3.011111,-0.305000,0.003697,-0.015625,-0.015625,0
3.013889,-0.300000,-0.080954,-0.016113,-0.016113,0
3.016667,-0.295000,-0.064904,-0.016602,-0.016602,0
3.019444,-0.300000,0.033953,-0.017090,-0.017090,0
3.022222,-0.305000,0.151418,-0.017578,-0.017578,0
3.025000,-0.315000,0.195000,-0.018066,-0.018066,0
3.027778,-0.310000,0.146418,-0.018311,-0.018311,0
3.030556,-0.315000,0.018953,-0.018555,-0.018555,0
3.033333,-0.295000,-0.064904,-0.018799,-0.018799,0
3.036111,-0.300000,-0.080954,-0.019287,-0.019287,0
3.038889,-0.310000,-0.001303,-0.020264,-0.020264,0
3.041667,-0.330000,0.105000,-0.021240,-0.021240,0
3.044444,-0.340000,0.167721,-0.022217,-0.022217,0
3.047222,-0.330000,0.144907,-0.022217,-0.022217,0
3.050000,-0.320000,0.040000,-0.021240,-0.021240,0
3.052778,-0.320000,-0.074907,-0.019531,-0.019531,0
3.055556,-0.315000,-0.102721,-0.017578,-0.017578,0
3.058333,-0.325000,-0.040000,-0.016357,-0.016357,0
3.061111,-0.335000,0.076303,-0.016357,-0.016357,0
3.063889,-0.330000,0.170954,-0.017822,-0.017822,0
3.066667,-0.315000,0.174904,-0.020752,-0.020752,0
3.069444,-0.320000,0.066047,-0.023926,-0.023926,0
3.072222,-0.320000,-0.056418,-0.026611,-0.026611,0
3.075000,-0.330000,-0.120000,-0.027344,-0.027344,0
3.077778,-0.345000,-0.081418,-0.025635,-0.025635,0
3.080556,-0.340000,0.046047,-0.021240,-0.021240,0
3.083333,-0.335000,0.154904,-0.014648,-0.014648,0
3.086111,-0.330000,0.170954,-0.006348,-0.006348,0
3.088889,-0.335000,0.076303,0.002930,0.002930,0
3.091667,-0.345000,-0.060000,0.012451,0.012451,0
3.094444,-0.350000,-0.137721,0.021240,0.021240,0
3.097222,-0.345000,-0.099907,0.029053,0.029053,0
3.100000,-0.340000,0.020000,0.035400,0.035400,0
3.102778,-0.335000,0.139907,0.040527,0.040527,0
3.105556,-0.335000,0.172721,0.044678,0.044678,0
3.108333,-0.330000,0.105000,0.048584,0.048584,0
3.111111,-0.335000,-0.026303,0.052734,0.052734,0
3.113889,-0.340000,-0.120954,0.057129,0.057129,0
3.116667,-0.335000,-0.104904,0.062012,0.062012,0
3.119444,-0.320000,0.013953,0.066406,0.066406,0
3.122222,-0.340000,0.116418,0.070068,0.070068,0
3.125000,-0.340000,0.170000,0.072510,0.072510,0
3.127778,-0.350000,0.106418,0.072998,0.072998,0
3.130556,-0.365000,-0.031047,0.072021,0.072021,0
3.133333,-0.360000,-0.129904,0.069824,0.069824,0
3.136111,-0.345000,-0.125954,0.066895,0.066895,0
3.138889,-0.345000,-0.036303,0.063477,0.063477,0
3.141667,-0.350000,0.085000,0.060303,0.060303,0
3.144444,-0.350000,0.157721,0.058105,0.058105,0
3.147222,-0.350000,0.124907,0.057373,0.057373,0
3.150000,-0.340000,0.020000,0.057861,0.057861,0
3.152778,-0.340000,-0.094907,0.059326,0.059326,0
3.155556,-0.345000,-0.132721,0.061279,0.061279,0
3.158333,-0.345000,-0.060000,0.062744,0.062744,0
3.161111,-0.380000,0.031303,0.063232,0.063232,0
3.163889,-0.360000,0.140954,0.062256,0.062256,0
3.166667,-0.360000,0.129904,0.060547,0.060547,0
3.169444,-0.345000,0.041047,0.058594,0.058594,0
3.172222,-0.345000,-0.081418,0.057129,0.057129,0
3.175000,-0.350000,-0.140000,0.056152,0.056152,0
3.177778,-0.355000,-0.091418,0.055664,0.055664,0
3.180556,-0.345000,0.041047,0.055664,0.055664,0
3.183333,-0.330000,0.159904,0.055176,0.055176,0
3.186111,-0.330000,0.170954,0.053955,0.053955,0
3.188889,-0.335000,0.076303,0.052002,0.052002,0
3.191667,-0.335000,-0.050000,0.050049,0.050049,0
3.194444,-0.340000,-0.127721,0.048340,0.048340,0
3.197222,-0.330000,-0.084907,0.046875,0.046875,0
3.200000,-0.320000,0.040000,0.046143,0.046143,0
3.202778,-0.290000,0.184907,0.045654,0.045654,0
3.205556,-0.290000,0.217721,0.044922,0.044922,0
3.208333,-0.300000,0.135000,0.043701,0.043701,0
3.211111,-0.305000,0.003697,0.041260,0.041260,0
3.213889,-0.285000,-0.065954,0.037842,0.037842,0
3.216667,-0.280000,-0.049904,0.033936,0.033936,0
3.219444,-0.275000,0.058953,0.030029,0.030029,0
3.222222,-0.280000,0.176418,0.026611,0.026611,0
3.225000,-0.275000,0.235000,0.024170,0.024170,0
3.227778,-0.270000,0.186418,0.023682,0.023682,0
3.230556,-0.265000,0.068953,0.024902,0.024902,0
3.233333,-0.250000,-0.019904,0.027100,0.027100,0
3.236111,-0.230000,-0.010954,0.029541,0.029541,0
3.238889,-0.245000,0.063697,0.031006,0.031006,0
3.241667,-0.240000,0.195000,0.030762,0.030762,0
3.244444,-0.255000,0.252721,0.029053,0.029053,0
3.247222,-0.255000,0.219907,0.026123,0.026123,0
3.250000,-0.245000,0.115000,0.022705,0.022705,0
3.252778,-0.235000,0.010093,0.019775,0.019775,0
3.255556,-0.255000,-0.042721,0.017334,0.017334,0
3.258333,-0.265000,0.020000,0.015625,0.015625,0
3.261111,-0.260000,0.151303,0.014404,0.014404,0
3.263889,-0.255000,0.245954,0.013184,0.013184,0
3.266667,-0.270000,0.219904,0.011719,0.011719,0
3.269444,-0.265000,0.121047,0.010498,0.010498,0
3.272222,-0.280000,-0.016418,0.009766,0.009766,0
3.275000,-0.255000,-0.045000,0.010010,0.010010,0
3.277778,-0.250000,0.013582,0.011475,0.011475,0
3.280556,-0.245000,0.141047,0.013672,0.013672,0
3.283333,-0.265000,0.224904,0.016602,0.016602,0
3.286111,-0.280000,0.220954,0.019531,0.019531,0
3.288889,-0.300000,0.111303,0.021484,0.021484,0
3.291667,-0.315000,-0.030000,0.021729,0.021729,0
3.294444,-0.325000,-0.112721,0.020264,0.020264,0
3.297222,-0.335000,-0.089907,0.016602,0.016602,0
3.300000,-0.345000,0.015000,0.011475,0.011475,0
3.302778,-0.330000,0.144907,0.005615,0.005615,0
3.305556,-0.335000,0.172721,0.000244,0.000244,0
3.308333,-0.345000,0.090000,-0.003174,-0.003174,0
3.311111,-0.360000,-0.051303,-0.004150,-0.004150,0
3.313889,-0.350000,-0.130954,-0.002197,-0.002197,0
3.316667,-0.340000,-0.109904,0.001709,0.001709,0
3.319444,-0.335000,-0.001047,0.006104,0.006104,0
3.322222,-0.345000,0.111418,0.009277,0.009277,0
3.325000,-0.360000,0.150000,0.010254,0.010254,0
3.327778,-0.365000,0.091418,0.008301,0.008301,0
3.330556,-0.375000,-0.041047,0.004395,0.004395,0
3.333333,-0.370000,-0.139904,-0.000732,-0.000732,0
3.336111,-0.365000,-0.145954,-0.005371,-0.005371,0
3.338889,-0.365000,-0.056303,-0.008301,-0.008301,0
3.341667,-0.380000,0.055000,-0.008789,-0.008789,0
3.344444,-0.375000,0.132721,-0.006592,-0.006592,0
3.347222,-0.375000,0.099907,-0.002686,-0.002686,0
3.350000,-0.365000,-0.005000,0.002441,0.002441,0
3.352778,-0.370000,-0.124907,0.007324,0.007324,0
3.355556,-0.360000,-0.147721,0.010742,0.010742,0
3.358333,-0.370000,-0.085000,0.012207,0.012207,0
3.361111,-0.380000,0.031303,0.012451,0.012451,0
3.363889,-0.365000,0.135954,0.012451,0.012451,0
3.366667,-0.360000,0.129904,0.013672,0.013672,0
3.369444,-0.350000,0.036047,0.017090,0.017090,0
3.372222,-0.355000,-0.091418,0.023193,0.023193,0
3.375000,-0.370000,-0.160000,0.031250,0.031250,0
3.377778,-0.385000,-0.121418,0.040039,0.040039,0
3.380556,-0.395000,-0.008953,0.048096,0.048096,0
3.383333,-0.430000,0.059904,0.054443,0.054443,0
3.386111,-0.445000,0.055954,0.058594,0.058594,0
3.388889,-0.485000,-0.073697,0.061035,0.061035,0
3.391667,-0.515000,-0.230000,0.063232,0.063232,0
3.394444,-0.565000,-0.352721,0.065918,0.065918,0
3.397222,-0.555000,-0.309907,0.070068,0.070068,0
3.400000,-0.475000,-0.115000,0.075684,0.075684,0
3.402778,-0.355000,0.119907,0.082275,0.082275,0
3.405556,-0.220000,0.287721,0.089111,0.089111,0
3.408333,-0.055000,0.380000,0.095215,0.095215,0
3.411111,0.185000,0.493697,0.100098,0.100098,0
3.413889,0.475000,0.694046,0.103516,0.103516,0
3.416667,0.705000,0.935096,0.105713,0.105713,0
3.419444,0.820000,1.153953,0.106445,0.106445,0
3.422222,0.780000,1.236418,0.105469,0.105469,0
3.425000,0.535000,1.045000,0.103271,0.103271,0
3.427778,0.145000,0.601418,0.099854,0.099854,0
3.430556,-0.200000,0.133953,0.095947,0.095947,0
3.433333,-0.420000,-0.189904,0.091797,0.091797,0
3.436111,-0.500000,-0.280954,0.087891,0.087891,0
3.438889,-0.480000,-0.171303,0.084961,0.084961,0
3.441667,-0.450000,-0.015000,0.083496,0.083496,0
3.444444,-0.410000,0.097721,0.083740,0.083740,0
3.447222,-0.400000,0.074907,0.085449,0.085449,0
3.450000,-0.390000,-0.030000,0.088135,0.088135,0
3.452778,-0.390000,-0.144907,0.090088,0.090088,0
3.455556,-0.400000,-0.187721,0.090088,0.090088,0
3.458333,-0.405000,-0.120000,0.085938,0.085938,0
3.461111,-0.425000,-0.013697,0.077393,0.077393,0
3.463889,-0.425000,0.075954,0.064209,0.064209,0
3.466667,-0.405000,0.084904,0.048096,0.048096,0
3.469444,-0.395000,-0.008953,0.031250,0.031250,0
3.472222,-0.405000,-0.141418,0.016602,0.016602,0
3.475000,-0.405000,-0.195000,0.006104,0.006104,0
3.477778,-0.415000,-0.151418,0.000977,0.000977,0
3.480556,-0.405000,-0.018953,0.001221,0.001221,0
3.483333,-0.385000,0.104904,0.004395,0.004395,0
3.486111,-0.390000,0.110954,0.008545,0.008545,0
3.488889,-0.395000,0.016303,0.010498,0.010498,0
3.491667,-0.395000,-0.110000,0.009033,0.009033,0
3.494444,-0.395000,-0.182721,0.003418,0.003418,0
3.497222,-0.395000,-0.149907,-0.004639,-0.004639,0
3.500000,-0.385000,-0.025000,-0.013184,-0.013184,0
3.502778,-0.390000,0.084907,-0.019531,-0.019531,0
3.505556,-0.390000,0.117721,-0.021973,-0.021973,0
3.508333,-0.400000,0.035000,-0.021240,-0.021240,0
3.511111,-0.425000,-0.116303,-0.018555,-0.018555,0
3.513889,-0.410000,-0.190954,-0.016846,-0.016846,0
3.516667,-0.400000,-0.169904,-0.018066,-0.018066,0
3.519444,-0.395000,-0.061047,-0.022949,-0.022949,0
3.522222,-0.400000,0.056418,-0.030029,-0.030029,0
3.525000,-0.405000,0.105000,-0.035889,-0.035889,0
3.527778,-0.425000,0.031418,-0.037354,-0.037354,0
3.530556,-0.415000,-0.081047,-0.032471,-0.032471,0
3.533333,-0.405000,-0.174904,-0.022217,-0.022217,0
3.536111,-0.405000,-0.185954,-0.010498,-0.010498,0
3.538889,-0.405000,-0.096303,-0.002441,-0.002441,0
3.541667,-0.410000,0.025000,-0.001709,-0.001709,0
3.544444,-0.415000,0.092721,-0.009766,-0.009766,0
3.547222,-0.405000,0.069907,-0.023438,-0.023438,0
3.550000,-0.420000,-0.060000,-0.037842,-0.037842,0
3.552778,-0.405000,-0.159907,-0.048340,-0.048340,0
3.555556,-0.410000,-0.197721,-0.054199,-0.054199,0
3.558333,-0.410000,-0.125000,-0.059326,-0.059326,0
3.561111,-0.420000,-0.008697,-0.070801,-0.070801,0
3.563889,-0.415000,0.085954,-0.096191,-0.096191,0
3.566667,-0.405000,0.084904,-0.136230,-0.136230,0
3.569444,-0.395000,-0.008953,-0.183105,-0.183105,0
3.572222,-0.395000,-0.131418,-0.217285,-0.217285,0
3.575000,-0.395000,-0.185000,-0.212402,-0.212402,0
3.577778,-0.400000,-0.136418,-0.143066,-0.143066,0
3.580556,-0.395000,-0.008953,0.005127,0.005127,0
3.583333,-0.395000,0.094904,0.226807,0.226807,0
3.586111,-0.405000,0.095954,0.494385,0.494385,0
3.588889,-0.405000,0.006303,0.761475,0.761475,0
3.591667,-0.420000,-0.135000,0.973633,0.973633,0
3.594444,-0.435000,-0.222721,1.083496,1.083496,1
3.597222,-0.415000,-0.169907,1.063965,1.063965,0
3.600000,-0.405000,-0.045000,0.918457,0.918457,0
3.602778,-0.395000,0.079907,0.678955,0.678955,0
3.605556,-0.390000,0.117721,0.398438,0.398438,0
3.608333,-0.415000,0.020000,0.135010,0.135010,0
3.611111,-0.405000,-0.096303,-0.063965,-0.063965,0
3.613889,-0.405000,-0.185954,-0.173340,-0.173340,0
3.616667,-0.400000,-0.169904,-0.195312,-0.195312,0
3.619444,-0.395000,-0.061047,-0.154541,-0.154541,0
3.622222,-0.395000,0.061418,-0.086670,-0.086670,0
3.625000,-0.405000,0.105000,-0.026123,-0.026123,0
3.627778,-0.420000,0.036418,0.005127,0.005127,0
3.630556,-0.415000,-0.081047,0.001953,0.001953,0
3.633333,-0.400000,-0.169904,-0.026367,-0.026367,0
3.636111,-0.395000,-0.175954,-0.062500,-0.062500,0
3.638889,-0.400000,-0.091303,-0.089355,-0.089355,0
3.641667,-0.405000,0.030000,-0.097168,-0.097168,0
3.644444,-0.425000,0.082721,-0.085693,-0.085693,0
3.647222,-0.425000,0.049907,-0.062988,-0.062988,0
3.650000,-0.425000,-0.065000,-0.039551,-0.039551,0
3.652778,-0.420000,-0.174907,-0.025391,-0.025391,0
3.655556,-0.425000,-0.212721,-0.023682,-0.023682,0
3.658333,-0.450000,-0.165000,-0.032227,-0.032227,0
3.661111,-0.445000,-0.033697,-0.044678,-0.044678,0
3.663889,-0.450000,0.050954,-0.053955,-0.053955,0
3.666667,-0.435000,0.054904,-0.055176,-0.055176,0
3.669444,-0.445000,-0.058953,-0.048340,-0.048340,0
3.672222,-0.470000,-0.206418,-0.037109,-0.037109,0
3.675000,-0.455000,-0.245000,-0.026855,-0.026855,0
3.677778,-0.460000,-0.196418,-0.022705,-0.022705,0
3.680556,-0.440000,-0.053953,-0.025879,-0.025879,0
3.683333,-0.435000,0.054904,-0.034912,-0.034912,0
3.686111,-0.425000,0.075954,-0.045654,-0.045654,0
3.688889,-0.430000,-0.018697,-0.053711,-0.053711,0
3.691667,-0.445000,-0.160000,-0.056396,-0.056396,0
3.694444,-0.450000,-0.237721,-0.053467,-0.053467,0
3.697222,-0.445000,-0.199907,-0.047607,-0.047607,0
3.700000,-0.430000,-0.070000,-0.041504,-0.041504,0
3.702778,-0.420000,0.054907,-0.038818,-0.038818,0
3.705556,-0.410000,0.097721,-0.039795,-0.039795,0
3.708333,-0.425000,0.010000,-0.043701,-0.043701,0
3.711111,-0.420000,-0.111303,-0.048340,-0.048340,0
3.713889,-0.405000,-0.185954,-0.051025,-0.051025,0
3.716667,-0.380000,-0.149904,-0.051025,-0.051025,0
3.719444,-0.370000,-0.036047,-0.048828,-0.048828,0
3.722222,-0.365000,0.091418,-0.045654,-0.045654,0
3.725000,-0.365000,0.145000,-0.043213,-0.043213,0
3.727778,-0.365000,0.091418,-0.043213,-0.043213,0
3.730556,-0.345000,-0.011047,-0.044922,-0.044922,0
3.733333,-0.330000,-0.099904,-0.047119,-0.047119,0
3.736111,-0.315000,-0.095954,-0.048584,-0.048584,0
3.738889,-0.305000,0.003697,-0.047852,-0.047852,0
3.741667,-0.305000,0.130000,-0.044189,-0.044189,0
3.744444,-0.320000,0.187721,-0.038574,-0.038574,0
3.747222,-0.310000,0.164907,-0.032227,-0.032227,0
3.750000,-0.310000,0.050000,-0.026855,-0.026855,0
3.752778,-0.305000,-0.059907,-0.024170,-0.024170,0
3.755556,-0.310000,-0.097721,-0.025146,-0.025146,0
3.758333,-0.315000,-0.030000,-0.029541,-0.029541,0
3.761111,-0.320000,0.091303,-0.036133,-0.036133,0
3.763889,-0.315000,0.185954,-0.042969,-0.042969,0
3.766667,-0.305000,0.184904,-0.048340,-0.048340,0
3.769444,-0.305000,0.081047,-0.050293,-0.050293,0
3.772222,-0.295000,-0.031418,-0.048828,-0.048828,0
3.775000,-0.310000,-0.100000,-0.044434,-0.044434,0
3.777778,-0.320000,-0.056418,-0.038818,-0.038818,0
3.780556,-0.310000,0.076047,-0.033447,-0.033447,0
3.783333,-0.315000,0.174904,-0.029785,-0.029785,0
3.786111,-0.295000,0.205954,-0.028564,-0.028564,0
3.788889,-0.300000,0.111303,-0.029541,-0.029541,0
3.791667,-0.305000,-0.020000,-0.031982,-0.031982,0
3.794444,-0.300000,-0.087721,-0.034424,-0.034424,0
3.797222,-0.285000,-0.039907,-0.036133,-0.036133,0
3.800000,-0.280000,0.080000,-0.036621,-0.036621,0
3.802778,-0.290000,0.184907,-0.036377,-0.036377,0
3.805556,-0.295000,0.212721,-0.035400,-0.035400,0
3.808333,-0.305000,0.130000,-0.034912,-0.034912,0
3.811111,-0.325000,-0.016303,-0.035156,-0.035156,0
3.813889,-0.305000,-0.085954,-0.036621,-0.036621,0
3.816667,-0.300000,-0.069904,-0.039551,-0.039551,0
3.819444,-0.300000,0.033953,-0.043457,-0.043457,0
3.822222,-0.315000,0.141418,-0.048340,-0.048340,0
3.825000,-0.325000,0.185000,-0.053223,-0.053223,0
3.827778,-0.335000,0.121418,-0.058105,-0.058105,0
3.830556,-0.325000,0.008953,-0.062744,-0.062744,0
3.833333,-0.315000,-0.084904,-0.067383,-0.067383,0
3.836111,-0.320000,-0.100954,-0.072266,-0.072266,0
3.838889,-0.335000,-0.026303,-0.077148,-0.077148,0
3.841667,-0.330000,0.105000,-0.082031,-0.082031,0
3.844444,-0.340000,0.167721,-0.085938,-0.085938,0
3.847222,-0.325000,0.149907,-0.088135,-0.088135,0
3.850000,-0.325000,0.035000,-0.087891,-0.087891,0
3.852778,-0.320000,-0.074907,-0.085205,-0.085205,0
3.855556,-0.315000,-0.102721,-0.080811,-0.080811,0
3.858333,-0.335000,-0.050000,-0.076172,-0.076172,0
3.861111,-0.335000,0.076303,-0.072510,-0.072510,0
3.863889,-0.345000,0.155954,-0.070801,-0.070801,0
3.866667,-0.335000,0.154904,-0.070801,-0.070801,0
3.869444,-0.325000,0.061047,-0.072021,-0.072021,0
3.872222,-0.330000,-0.066418,-0.073242,-0.073242,0
3.875000,-0.315000,-0.105000,-0.072998,-0.072998,0
3.877778,-0.335000,-0.071418,-0.070068,-0.070068,0
3.880556,-0.330000,0.056047,-0.064697,-0.064697,0
3.883333,-0.330000,0.159904,-0.056885,-0.056885,0
3.886111,-0.330000,0.170954,-0.048096,-0.048096,0
3.888889,-0.330000,0.081303,-0.038818,-0.038818,0
3.891667,-0.335000,-0.050000,-0.029785,-0.029785,0
3.894444,-0.340000,-0.127721,-0.021729,-0.021729,0
3.897222,-0.330000,-0.084907,-0.013672,-0.013672,0
3.900000,-0.320000,0.040000,-0.005371,-0.005371,0
3.902778,-0.315000,0.159907,0.003418,0.003418,0
3.905556,-0.325000,0.182721,0.013184,0.013184,0
3.908333,-0.335000,0.100000,0.023682,0.023682,0
3.911111,-0.355000,-0.046303,0.034180,0.034180,0
3.913889,-0.345000,-0.125954,0.043457,0.043457,0
3.916667,-0.340000,-0.109904,0.050293,0.050293,0
3.919444,-0.335000,-0.001047,0.053223,0.053223,0
3.922222,-0.320000,0.136418,0.052979,0.052979,0
3.925000,-0.325000,0.185000,0.050293,0.050293,0
3.927778,-0.350000,0.106418,0.046387,0.046387,0
3.930556,-0.330000,0.003953,0.043701,0.043701,0
3.933333,-0.315000,-0.084904,0.042725,0.042725,0
3.936111,-0.315000,-0.095954,0.043945,0.043945,0
3.938889,-0.330000,-0.021303,0.046631,0.046631,0
3.941667,-0.330000,0.105000,0.049316,0.049316,0
3.944444,-0.335000,0.172721,0.051025,0.051025,0
3.947222,-0.335000,0.139907,0.050781,0.050781,0
3.950000,-0.330000,0.030000,0.049072,0.049072,0
3.952778,-0.330000,-0.084907,0.046631,0.046631,0
3.955556,-0.330000,-0.117721,0.044678,0.044678,0
3.958333,-0.340000,-0.055000,0.044678,0.044678,0
3.961111,-0.340000,0.071303,0.046631,0.046631,0
3.963889,-0.340000,0.160954,0.050781,0.050781,0
3.966667,-0.325000,0.164904,0.056152,0.056152,0
3.969444,-0.325000,0.061047,0.061279,0.061279,0
3.972222,-0.325000,-0.061418,0.064697,0.064697,0
3.975000,-0.345000,-0.135000,0.065674,0.065674,0
3.977778,-0.350000,-0.086418,0.063965,0.063965,0
3.980556,-0.340000,0.046047,0.060059,0.060059,0
3.983333,-0.330000,0.159904,0.055176,0.055176,0
3.986111,-0.320000,0.180954,0.050049,0.050049,0
3.988889,-0.310000,0.101303,0.046143,0.046143,0
3.991667,-0.305000,-0.020000,0.043701,0.043701,0
3.994444,-0.305000,-0.092721,0.042236,0.042236,0
3.997222,-0.275000,-0.029907,0.041016,0.041016,0
4.000000,-0.270000,0.090000,0.038574,0.038574,0
4.002778,-0.255000,0.219907,0.035156,0.035156,0
4.005556,-0.260000,0.247721,0.030762,0.030762,0
4.008333,-0.265000,0.170000,0.026367,0.026367,0
4.011111,-0.260000,0.048697,0.023193,0.023193,0
4.013889,-0.250000,-0.030954,0.021973,0.021973,0
4.016667,-0.235000,-0.004904,0.022949,0.022949,0
4.019444,-0.235000,0.098953,0.024902,0.024902,0
4.022222,-0.220000,0.236418,0.027100,0.027100,0
4.025000,-0.235000,0.275000,0.028076,0.028076,0
4.027778,-0.235000,0.221418,0.027344,0.027344,0
4.030556,-0.220000,0.113953,0.025146,0.025146,0
4.033333,-0.230000,0.000096,0.022461,0.022461,0
4.036111,-0.225000,-0.005954,0.020020,0.020020,0
4.038889,-0.235000,0.073697,0.018799,0.018799,0
4.041667,-0.245000,0.190000,0.019043,0.019043,0
4.044444,-0.255000,0.252721,0.020264,0.020264,0
4.047222,-0.240000,0.234907,0.022217,0.022217,0
4.050000,-0.230000,0.130000,0.023926,0.023926,0
4.052778,-0.230000,0.015093,0.024414,0.024414,0
4.055556,-0.250000,-0.037721,0.023926,0.023926,0
4.058333,-0.255000,0.030000,0.022217,0.022217,0
4.061111,-0.250000,0.161303,0.020264,0.020264,0
4.063889,-0.230000,0.270954,0.019043,0.019043,0
4.066667,-0.205000,0.284904,0.019043,0.019043,0
4.069444,-0.195000,0.191047,0.020020,0.020020,0
4.072222,-0.210000,0.053582,0.021973,0.021973,0
4.075000,-0.230000,-0.020000,0.023926,0.023926,0
4.077778,-0.270000,-0.006418,0.024170,0.024170,0
4.080556,-0.270000,0.116047,0.022949,0.022949,0
4.083333,-0.285000,0.204904,0.019775,0.019775,0
4.086111,-0.285000,0.215954,0.015625,0.015625,0
4.088889,-0.310000,0.101303,0.011719,0.011719,0
4.091667,-0.330000,-0.045000,0.009521,0.009521,0
4.094444,-0.340000,-0.127721,0.009766,0.009766,0
4.097222,-0.340000,-0.094907,0.012207,0.012207,0
4.100000,-0.345000,0.015000,0.016113,0.016113,0
4.102778,-0.350000,0.124907,0.020508,0.020508,0
4.105556,-0.350000,0.157721,0.024170,0.024170,0
4.108333,-0.340000,0.095000,0.026367,0.026367,0
4.111111,-0.355000,-0.046303,0.026611,0.026611,0
4.113889,-0.345000,-0.125954,0.025391,0.025391,0
4.116667,-0.340000,-0.109904,0.023193,0.023193,0
4.119444,-0.340000,-0.006047,0.020020,0.020020,0
4.122222,-0.345000,0.111418,0.017090,0.017090,0
4.125000,-0.355000,0.155000,0.014404,0.014404,0
4.127778,-0.370000,0.086418,0.012939,0.012939,0
4.130556,-0.355000,-0.021047,0.012939,0.012939,0
4.133333,-0.370000,-0.139904,0.014160,0.014160,0
4.136111,-0.345000,-0.125954,0.016113,0.016113,0
4.138889,-0.340000,-0.031303,0.017334,0.017334,0
4.141667,-0.360000,0.075000,0.017578,0.017578,0
4.144444,-0.380000,0.127721,0.016113,0.016113,0
4.147222,-0.360000,0.114907,0.013428,0.013428,0
4.150000,-0.345000,0.015000,0.010498,0.010498,0
4.152778,-0.350000,-0.104907,0.008301,0.008301,0
4.155556,-0.350000,-0.137721,0.008301,0.008301,0
4.158333,-0.355000,-0.070000,0.011719,0.011719,0
4.161111,-0.380000,0.031303,0.018311,0.018311,0
4.163889,-0.390000,0.110954,0.027832,0.027832,0
4.166667,-0.395000,0.094904,0.039062,0.039062,0
4.169444,-0.425000,-0.038953,0.050781,0.050781,0
4.172222,-0.455000,-0.191418,0.061768,0.061768,0
4.175000,-0.475000,-0.265000,0.070801,0.070801,0
4.177778,-0.510000,-0.246418,0.078125,0.078125,0
4.180556,-0.545000,-0.158953,0.083496,0.083496,0
4.183333,-0.540000,-0.050096,0.088135,0.088135,0
4.186111,-0.495000,0.005954,0.092285,0.092285,0
4.188889,-0.405000,0.006303,0.097168,0.097168,0
4.191667,-0.295000,-0.010000,0.102783,0.102783,0
4.194444,-0.160000,0.052279,0.108398,0.108398,0
4.197222,0.040000,0.285093,0.113525,0.113525,0
4.200000,0.315000,0.675000,0.117188,0.117188,0
4.202778,0.595000,1.069907,0.119141,0.119141,0
4.205556,0.800000,1.307721,0.119141,0.119141,0
4.208333,0.885000,1.320000,0.117676,0.117676,0
4.211111,0.795000,1.103697,0.114990,0.114990,0
4.213889,0.520000,0.739046,0.112061,0.112061,0
4.216667,0.130000,0.360096,0.108887,0.108887,0
4.219444,-0.215000,0.118953,0.105469,0.105469,0
4.222222,-0.425000,0.031418,0.102051,0.102051,0
4.225000,-0.500000,0.010000,0.099365,0.099365,0
4.227778,-0.490000,-0.033582,0.097900,0.097900,0
4.230556,-0.450000,-0.116047,0.098877,0.098877,0
4.233333,-0.400000,-0.169904,0.102539,0.102539,0
4.236111,-0.390000,-0.170954,0.108643,0.108643,0
4.238889,-0.395000,-0.086303,0.116211,0.116211,0
4.241667,-0.395000,0.040000,0.123291,0.123291,0
4.244444,-0.400000,0.107721,0.127441,0.127441,0
4.247222,-0.390000,0.084907,0.127197,0.127197,0
4.250000,-0.380000,-0.020000,0.121094,0.121094,0
4.252778,-0.385000,-0.139907,0.109131,0.109131,0
4.255556,-0.385000,-0.172721,0.092041,0.092041,0
4.258333,-0.400000,-0.115000,0.071777,0.071777,0
4.261111,-0.410000,0.001303,0.051270,0.051270,0
4.263889,-0.410000,0.090954,0.032959,0.032959,0
4.266667,-0.390000,0.099904,0.018555,0.018555,0
4.269444,-0.390000,-0.003953,0.009521,0.009521,0
4.272222,-0.405000,-0.141418,0.005127,0.005127,0
4.275000,-0.405000,-0.195000,0.003662,0.003662,0
4.277778,-0.415000,-0.151418,0.002930,0.002930,0
4.280556,-0.410000,-0.023953,0.001221,0.001221,0
4.283333,-0.395000,0.094904,-0.001953,-0.001953,0
4.286111,-0.395000,0.105954,-0.005859,-0.005859,0
4.288889,-0.400000,0.011303,-0.008789,-0.008789,0
4.291667,-0.415000,-0.130000,-0.009277,-0.009277,0
4.294444,-0.415000,-0.202721,-0.007080,-0.007080,0
4.297222,-0.415000,-0.169907,-0.003174,-0.003174,0
4.300000,-0.400000,-0.040000,0.000000,0.000000,0
4.302778,-0.390000,0.084907,-0.000244,-0.000244,0
4.305556,-0.390000,0.117721,-0.005371,-0.005371,0
4.308333,-0.410000,0.025000,-0.014160,-0.014160,0
4.311111,-0.415000,-0.106303,-0.023682,-0.023682,0
4.313889,-0.405000,-0.185954,-0.029785,-0.029785,0
4.316667,-0.395000,-0.164904,-0.029297,-0.029297,0
4.319444,-0.395000,-0.061047,-0.021973,-0.021973,0
4.322222,-0.395000,0.061418,-0.010010,-0.010010,0
4.325000,-0.405000,0.105000,0.001465,0.001465,0
4.327778,-0.410000,0.046418,0.006836,0.006836,0
4.330556,-0.410000,-0.076047,0.002197,0.002197,0
4.333333,-0.400000,-0.169904,-0.012451,-0.012451,0
4.336111,-0.390000,-0.170954,-0.033691,-0.033691,0
4.338889,-0.395000,-0.086303,-0.055420,-0.055420,0
4.341667,-0.410000,0.025000,-0.072754,-0.072754,0
4.344444,-0.425000,0.082721,-0.083496,-0.083496,0
4.347222,-0.415000,0.059907,-0.091064,-0.091064,0
4.350000,-0.405000,-0.045000,-0.101807,-0.101807,0
4.352778,-0.410000,-0.164907,-0.122314,-0.122314,0
4.355556,-0.405000,-0.192721,-0.153076,-0.153076,0
4.358333,-0.415000,-0.130000,-0.185547,-0.185547,0
4.361111,-0.425000,-0.013697,-0.200684,-0.200684,0
4.363889,-0.425000,0.075954,-0.173340,-0.173340,0
4.366667,-0.410000,0.079904,-0.080078,-0.080078,0
4.369444,-0.395000,-0.008953,0.090088,0.090088,0
4.372222,-0.390000,-0.126418,0.328125,0.328125,0
4.375000,-0.400000,-0.190000,0.603027,0.603027,0
4.377778,-0.410000,-0.146418,0.866455,0.866455,0
4.380556,-0.410000,-0.023953,1.063477,1.063477,0
4.383333,-0.400000,0.089904,1.149902,1.149902,1
4.386111,-0.390000,0.110954,1.103516,1.103516,0
4.388889,-0.410000,0.001303,0.932617,0.932617,0
4.391667,-0.420000,-0.135000,0.673584,0.673584,0
4.394444,-0.420000,-0.207721,0.382080,0.382080,0
4.397222,-0.415000,-0.169907,0.115967,0.115967,0
4.400000,-0.415000,-0.055000,-0.079590,-0.079590,0
4.402778,-0.405000,0.069907,-0.183105,-0.183105,0
4.405556,-0.420000,0.087721,-0.199707,-0.199707,0
4.408333,-0.415000,0.020000,-0.155029,-0.155029,0
4.411111,-0.425000,-0.116303,-0.085205,-0.085205,0
4.413889,-0.410000,-0.190954,-0.023193,-0.023193,0
4.416667,-0.400000,-0.169904,0.009766,0.009766,0
4.419444,-0.405000,-0.071047,0.009277,0.009277,0
4.422222,-0.400000,0.056418,-0.015137,-0.015137,0
4.425000,-0.400000,0.110000,-0.047363,-0.047363,0
4.427778,-0.410000,0.046418,-0.071289,-0.071289,0
4.430556,-0.400000,-0.066047,-0.078125,-0.078125,0
4.433333,-0.395000,-0.164904,-0.068115,-0.068115,0
4.436111,-0.395000,-0.175954,-0.049316,-0.049316,0
4.438889,-0.405000,-0.096303,-0.031738,-0.031738,0
4.441667,-0.410000,0.025000,-0.023926,-0.023926,0
4.444444,-0.425000,0.082721,-0.028076,-0.028076,0
4.447222,-0.425000,0.049907,-0.041016,-0.041016,0
4.450000,-0.410000,-0.050000,-0.055664,-0.055664,0
4.452778,-0.410000,-0.164907,-0.065918,-0.065918,0
4.455556,-0.420000,-0.207721,-0.067383,-0.067383,0
4.458333,-0.430000,-0.145000,-0.061035,-0.061035,0
4.461111,-0.445000,-0.033697,-0.050537,-0.050537,0
4.463889,-0.440000,0.060954,-0.041260,-0.041260,0
4.466667,-0.435000,0.054904,-0.036865,-0.036865,0
4.469444,-0.430000,-0.043953,-0.038574,-0.038574,0
4.472222,-0.430000,-0.166418,-0.044189,-0.044189,0
4.475000,-0.450000,-0.240000,-0.050537,-0.050537,0
4.477778,-0.445000,-0.181418,-0.053955,-0.053955,0
4.480556,-0.445000,-0.058953,-0.053223,-0.053223,0
4.483333,-0.435000,0.054904,-0.048340,-0.048340,0
4.486111,-0.435000,0.065954,-0.041992,-0.041992,0
4.488889,-0.445000,-0.033697,-0.036377,-0.036377,0
4.491667,-0.440000,-0.155000,-0.033447,-0.033447,0
4.494444,-0.450000,-0.237721,-0.034180,-0.034180,0
4.497222,-0.430000,-0.184907,-0.036865,-0.036865,0
4.500000,-0.430000,-0.070000,-0.040527,-0.040527,0
4.502778,-0.415000,0.059907,-0.042969,-0.042969,0
4.505556,-0.400000,0.107721,-0.043457,-0.043457,0
4.508333,-0.400000,0.035000,-0.042236,-0.042236,0
4.511111,-0.385000,-0.076303,-0.039795,-0.039795,0
4.513889,-0.365000,-0.145954,-0.038086,-0.038086,0
4.516667,-0.335000,-0.104904,-0.037598,-0.037598,0
4.519444,-0.330000,0.003953,-0.039307,-0.039307,0
4.522222,-0.325000,0.131418,-0.042480,-0.042480,0
4.525000,-0.330000,0.180000,-0.046631,-0.046631,0
4.527778,-0.330000,0.126418,-0.049805,-0.049805,0
4.530556,-0.310000,0.023953,-0.051758,-0.051758,0
4.533333,-0.295000,-0.064904,-0.051514,-0.051514,0
4.536111,-0.285000,-0.065954,-0.049561,-0.049561,0
4.538889,-0.290000,0.018697,-0.046387,-0.046387,0
4.541667,-0.290000,0.145000,-0.042725,-0.042725,0
4.544444,-0.310000,0.197721,-0.039307,-0.039307,0
4.547222,-0.295000,0.179907,-0.036377,-0.036377,0
4.550000,-0.285000,0.075000,-0.034424,-0.034424,0
4.552778,-0.280000,-0.034907,-0.033203,-0.033203,0
4.555556,-0.300000,-0.087721,-0.033203,-0.033203,0
4.558333,-0.290000,-0.005000,-0.034180,-0.034180,0
4.561111,-0.295000,0.116303,-0.036133,-0.036133,0
4.563889,-0.290000,0.210954,-0.039062,-0.039062,0
4.566667,-0.280000,0.209904,-0.041748,-0.041748,0
4.569444,-0.275000,0.111047,-0.044434,-0.044434,0
4.572222,-0.275000,-0.011418,-0.046143,-0.046143,0
4.575000,-0.290000,-0.080000,-0.047119,-0.047119,0
4.577778,-0.290000,-0.026418,-0.047363,-0.047363,0
4.580556,-0.285000,0.101047,-0.046875,-0.046875,0
4.583333,-0.270000,0.219904,-0.046387,-0.046387,0
4.586111,-0.270000,0.230954,-0.045410,-0.045410,0
4.588889,-0.270000,0.141303,-0.043945,-0.043945,0
4.591667,-0.275000,0.010000,-0.041748,-0.041748,0
4.594444,-0.290000,-0.077721,-0.038818,-0.038818,0
4.597222,-0.285000,-0.039907,-0.035400,-0.035400,0
4.600000,-0.275000,0.085000,-0.032715,-0.032715,0
4.602778,-0.275000,0.199907,-0.030762,-0.030762,0
4.605556,-0.290000,0.217721,-0.030518,-0.030518,0
4.608333,-0.295000,0.140000,-0.031738,-0.031738,0
4.611111,-0.305000,0.003697,-0.034180,-0.034180,0
4.613889,-0.295000,-0.075954,-0.037598,-0.037598,0
4.616667,-0.295000,-0.064904,-0.040771,-0.040771,0
4.619444,-0.285000,0.048953,-0.044189,-0.044189,0
4.622222,-0.290000,0.166418,-0.047607,-0.047607,0
4.625000,-0.300000,0.210000,-0.050781,-0.050781,0
4.627778,-0.305000,0.151418,-0.053955,-0.053955,0
4.630556,-0.310000,0.023953,-0.057129,-0.057129,0
4.633333,-0.295000,-0.064904,-0.060303,-0.060303,0
4.636111,-0.300000,-0.080954,-0.063721,-0.063721,0
4.638889,-0.305000,0.003697,-0.067383,-0.067383,0
4.641667,-0.310000,0.125000,-0.070801,-0.070801,0
4.644444,-0.325000,0.182721,-0.073730,-0.073730,0
4.647222,-0.325000,0.149907,-0.075684,-0.075684,0
4.650000,-0.315000,0.045000,-0.076660,-0.076660,0
4.652778,-0.310000,-0.064907,-0.076660,-0.076660,0
4.655556,-0.315000,-0.102721,-0.076172,-0.076172,0
4.658333,-0.315000,-0.030000,-0.076172,-0.076172,0
4.661111,-0.325000,0.086303,-0.076904,-0.076904,0
4.663889,-0.320000,0.180954,-0.078125,-0.078125,0
4.666667,-0.310000,0.179904,-0.079590,-0.079590,0
4.669444,-0.320000,0.066047,-0.079834,-0.079834,0
4.672222,-0.315000,-0.051418,-0.077637,-0.077637,0
4.675000,-0.330000,-0.120000,-0.072266,-0.072266,0
4.677778,-0.330000,-0.066418,-0.063232,-0.063232,0
4.680556,-0.320000,0.066047,-0.051514,-0.051514,0
4.683333,-0.310000,0.179904,-0.037598,-0.037598,0
4.686111,-0.310000,0.190954,-0.022949,-0.022949,0
4.688889,-0.310000,0.101303,-0.008789,-0.008789,0
4.691667,-0.330000,-0.045000,0.004150,0.004150,0
4.694444,-0.335000,-0.122721,0.015381,0.015381,0
4.697222,-0.330000,-0.084907,0.025146,0.025146,0
4.700000,-0.320000,0.040000,0.033203,0.033203,0
4.702778,-0.325000,0.149907,0.040527,0.040527,0
4.705556,-0.325000,0.182721,0.046875,0.046875,0
4.708333,-0.330000,0.105000,0.052490,0.052490,0
4.711111,-0.335000,-0.026303,0.057617,0.057617,0
4.713889,-0.330000,-0.110954,0.061523,0.061523,0
4.716667,-0.325000,-0.094904,0.064209,0.064209,0
4.719444,-0.325000,0.008953,0.065186,0.065186,0
4.722222,-0.320000,0.136418,0.064697,0.064697,0
4.725000,-0.325000,0.185000,0.063477,0.063477,0
4.727778,-0.330000,0.126418,0.062256,0.062256,0
4.730556,-0.325000,0.008953,0.061768,0.061768,0
4.733333,-0.315000,-0.084904,0.062744,0.062744,0
4.736111,-0.305000,-0.085954,0.064697,0.064697,0
4.738889,-0.325000,-0.016303,0.066895,0.066895,0
4.741667,-0.315000,0.120000,0.068848,0.068848,0
4.744444,-0.335000,0.172721,0.070068,0.070068,0
4.747222,-0.330000,0.144907,0.070557,0.070557,0
4.750000,-0.310000,0.050000,0.071045,0.071045,0
4.752778,-0.320000,-0.074907,0.071533,0.071533,0
4.755556,-0.330000,-0.117721,0.072266,0.072266,0
4.758333,-0.330000,-0.045000,0.073730,0.073730,0
4.761111,-0.335000,0.076303,0.075195,0.075195,0
4.763889,-0.330000,0.170954,0.076172,0.076172,0
4.766667,-0.330000,0.159904,0.076660,0.076660,0
4.769444,-0.320000,0.066047,0.075684,0.075684,0
4.772222,-0.320000,-0.056418,0.073730,0.073730,0
4.775000,-0.330000,-0.120000,0.070801,0.070801,0
4.777778,-0.330000,-0.066418,0.067383,0.067383,0
4.780556,-0.325000,0.061047,0.063477,0.063477,0
4.783333,-0.315000,0.174904,0.060059,0.060059,0
4.786111,-0.315000,0.185954,0.057129,0.057129,0
4.788889,-0.315000,0.096303,0.055176,0.055176,0
4.791667,-0.330000,-0.045000,0.054688,0.054688,0
4.794444,-0.330000,-0.117721,0.054688,0.054688,0
4.797222,-0.320000,-0.074907,0.055176,0.055176,0
4.800000,-0.315000,0.045000,0.055420,0.055420,0
4.802778,-0.305000,0.169907,0.054443,0.054443,0
4.805556,-0.305000,0.202721,0.052246,0.052246,0
4.808333,-0.295000,0.140000,0.049072,0.049072,0
4.811111,-0.315000,-0.006303,0.045410,0.045410,0
4.813889,-0.300000,-0.080954,0.041504,0.041504,0
4.816667,-0.275000,-0.044904,0.038086,0.038086,0
4.819444,-0.255000,0.078953,0.035400,0.035400,0
4.822222,-0.255000,0.201418,0.033691,0.033691,0
4.825000,-0.260000,0.250000,0.032715,0.032715,0
4.827778,-0.265000,0.191418,0.032715,0.032715,0
4.830556,-0.255000,0.078953,0.032959,0.032959,0
4.833333,-0.235000,-0.004904,0.033447,0.033447,0
4.836111,-0.230000,-0.010954,0.033447,0.033447,0
4.838889,-0.225000,0.083697,0.032715,0.032715,0
4.841667,-0.220000,0.215000,0.031494,0.031494,0
4.844444,-0.220000,0.287721,0.029785,0.029785,0
4.847222,-0.215000,0.259907,0.028564,0.028564,0
4.850000,-0.200000,0.160000,0.028320,0.028320,0
4.852778,-0.205000,0.040093,0.028809,0.028809,0
4.855556,-0.205000,0.007279,0.030273,0.030273,0
4.858333,-0.225000,0.060000,0.031494,0.031494,0
4.861111,-0.235000,0.176303,0.031982,0.031982,0
4.863889,-0.240000,0.260954,0.031494,0.031494,0
4.866667,-0.230000,0.259904,0.029785,0.029785,0
4.869444,-0.215000,0.171047,0.027344,0.027344,0
4.872222,-0.240000,0.023582,0.024658,0.024658,0
4.875000,-0.240000,-0.030000,0.022461,0.022461,0
4.877778,-0.250000,0.013582,0.020996,0.020996,0
4.880556,-0.235000,0.151047,0.020264,0.020264,0
4.883333,-0.210000,0.279904,0.020264,0.020264,0
4.886111,-0.200000,0.300954,0.020508,0.020508,0
4.888889,-0.220000,0.191303,0.020996,0.020996,0
4.891667,-0.255000,0.030000,0.021484,0.021484,0
4.894444,-0.275000,-0.062721,0.022461,0.022461,0
4.897222,-0.285000,-0.039907,0.023682,0.023682,0
4.900000,-0.300000,0.060000,0.024902,0.024902,0
4.902778,-0.305000,0.169907,0.026123,0.026123,0
4.905556,-0.320000,0.187721,0.027588,0.027588,0
4.908333,-0.330000,0.105000,0.028564,0.028564,0
4.911111,-0.325000,-0.016303,0.029541,0.029541,0
4.913889,-0.320000,-0.100954,0.030029,0.030029,0
4.916667,-0.330000,-0.099904,0.030029,0.030029,0
4.919444,-0.330000,0.003953,0.029053,0.029053,0
4.922222,-0.335000,0.121418,0.027344,0.027344,0
4.925000,-0.340000,0.170000,0.025146,0.025146,0
4.927778,-0.345000,0.111418,0.022705,0.022705,0
4.930556,-0.340000,-0.006047,0.020752,0.020752,0
4.933333,-0.335000,-0.104904,0.019531,0.019531,0
4.936111,-0.320000,-0.100954,0.019043,0.019043,0
4.938889,-0.325000,-0.016303,0.019043,0.019043,0
4.941667,-0.335000,0.100000,0.019531,0.019531,0
4.944444,-0.345000,0.162721,0.020020,0.020020,0
4.947222,-0.345000,0.129907,0.020752,0.020752,0
4.950000,-0.345000,0.015000,0.021729,0.021729,0
4.952778,-0.335000,-0.089907,0.023193,0.023193,0
4.955556,-0.340000,-0.127721,0.024414,0.024414,0
4.958333,-0.345000,-0.060000,0.025635,0.025635,0
4.961111,-0.355000,0.056303,0.026123,0.026123,0
4.963889,-0.340000,0.160954,0.026123,0.026123,0
4.966667,-0.340000,0.149904,0.025635,0.025635,0
4.969444,-0.340000,0.046047,0.025391,0.025391,0
4.972222,-0.340000,-0.076418,0.025635,0.025635,0
4.975000,-0.345000,-0.135000,0.027100,0.027100,0
4.977778,-0.355000,-0.091418,0.030029,0.030029,0
4.980556,-0.365000,0.021047,0.034424,0.034424,0
4.983333,-0.370000,0.119904,0.040039,0.040039,0
4.986111,-0.405000,0.095954,0.046875,0.046875,0
4.988889,-0.445000,-0.033697,0.054199,0.054199,0
4.991667,-0.480000,-0.195000,0.062256,0.062256,0
4.994444,-0.495000,-0.282721,0.070068,0.070068,0
4.997222,-0.520000,-0.274907,0.077881,0.077881,0
5.000000,-0.535000,-0.175000,0.084961,0.084961,0
5.002778,-0.505000,-0.030093,0.091064,0.091064,0
5.005556,-0.415000,0.092721,0.096680,0.096680,0
5.008333,-0.280000,0.155000,0.102051,0.102051,0
5.011111,-0.135000,0.173697,0.107666,0.107666,0
5.013889,0.065000,0.284046,0.113770,0.113770,0
5.016667,0.300000,0.530096,0.120361,0.120361,0
5.019444,0.580000,0.913953,0.126953,0.126953,0
5.022222,0.810000,1.266418,0.132324,0.132324,0
5.025000,0.945000,1.455000,0.135742,0.135742,0
5.027778,0.920000,1.376418,0.136475,0.136475,0
5.030556,0.775000,1.108953,0.134277,0.134277,0
5.033333,0.445000,0.675096,0.129395,0.129395,0
5.036111,0.020000,0.239046,0.122314,0.122314,0
5.038889,-0.295000,0.013697,0.114502,0.114502,0
5.041667,-0.445000,-0.010000,0.107666,0.107666,0
5.044444,-0.470000,0.037721,0.103271,0.103271,0
5.047222,-0.425000,0.049907,0.102539,0.102539,0
5.050000,-0.380000,-0.020000,0.105469,0.105469,0
5.052778,-0.360000,-0.114907,0.111328,0.111328,0
5.055556,-0.360000,-0.147721,0.117676,0.117676,0
5.058333,-0.370000,-0.085000,0.122314,0.122314,0
5.061111,-0.380000,0.031303,0.122314,0.122314,0
5.063889,-0.380000,0.120954,0.116455,0.116455,0
5.066667,-0.375000,0.114904,0.104736,0.104736,0
5.069444,-0.370000,0.016047,0.088379,0.088379,0
5.072222,-0.365000,-0.101418,0.069580,0.069580,0
5.075000,-0.370000,-0.160000,0.051025,0.051025,0
5.077778,-0.385000,-0.121418,0.035400,0.035400,0
5.080556,-0.385000,0.001047,0.023682,0.023682,0
5.083333,-0.375000,0.114904,0.016846,0.016846,0
5.086111,-0.370000,0.130954,0.014160,0.014160,0
5.088889,-0.370000,0.041303,0.013916,0.013916,0
5.091667,-0.385000,-0.100000,0.014648,0.014648,0
5.094444,-0.395000,-0.182721,0.014160,0.014160,0
5.097222,-0.385000,-0.139907,0.011963,0.011963,0
5.100000,-0.385000,-0.025000,0.007568,0.007568,0
5.102778,-0.390000,0.084907,0.002197,0.002197,0
5.105556,-0.385000,0.122721,-0.001709,-0.001709,0
5.108333,-0.395000,0.040000,-0.002930,-0.002930,0
5.111111,-0.410000,-0.101303,-0.000244,-0.000244,0
5.113889,-0.400000,-0.180954,0.004883,0.004883,0
5.116667,-0.395000,-0.164904,0.010742,0.010742,0
5.119444,-0.380000,-0.046047,0.013672,0.013672,0
5.122222,-0.395000,0.061418,0.011719,0.011719,0
5.125000,-0.395000,0.115000,0.004395,0.004395,0
5.127778,-0.400000,0.056418,-0.005859,-0.005859,0
5.130556,-0.400000,-0.066047,-0.015625,-0.015625,0
5.133333,-0.395000,-0.164904,-0.020508,-0.020508,0
5.136111,-0.390000,-0.170954,-0.018311,-0.018311,0
5.138889,-0.390000,-0.081303,-0.009277,-0.009277,0
5.141667,-0.395000,0.040000,0.002441,0.002441,0
5.144444,-0.405000,0.102721,0.011963,0.011963,0
5.147222,-0.390000,0.084907,0.013916,0.013916,0
5.150000,-0.385000,-0.025000,0.005615,0.005615,0
5.152778,-0.375000,-0.129907,-0.011475,-0.011475,0
5.155556,-0.375000,-0.162721,-0.033936,-0.033936,0
5.158333,-0.380000,-0.095000,-0.056396,-0.056396,0
5.161111,-0.390000,0.021303,-0.075195,-0.075195,0
5.163889,-0.385000,0.115954,-0.090332,-0.090332,0
5.166667,-0.370000,0.119904,-0.105225,-0.105225,0
5.169444,-0.370000,0.016047,-0.124023,-0.124023,0
5.172222,-0.370000,-0.106418,-0.148438,-0.148438,0
5.175000,-0.375000,-0.165000,-0.173096,-0.173096,0
5.177778,-0.385000,-0.121418,-0.183594,-0.183594,0
5.180556,-0.370000,0.016047,-0.158936,-0.158936,0
5.183333,-0.390000,0.099904,-0.076660,-0.076660,0
5.186111,-0.375000,0.125954,0.077148,0.077148,0
5.188889,-0.370000,0.041303,0.301514,0.301514,0
5.191667,-0.380000,-0.095000,0.573730,0.573730,0
5.194444,-0.390000,-0.177721,0.852295,0.852295,0
5.197222,-0.390000,-0.144907,1.085205,1.085205,0
5.200000,-0.385000,-0.025000,1.223145,1.223145,0
5.202778,-0.375000,0.099907,1.233398,1.233398,1
5.205556,-0.375000,0.132721,1.111084,1.111084,0
5.208333,-0.385000,0.050000,0.880371,0.880371,0
5.211111,-0.395000,-0.086303,0.589600,0.589600,0
5.213889,-0.390000,-0.170954,0.297119,0.297119,0
5.216667,-0.385000,-0.154904,0.056152,0.056152,0
5.219444,-0.375000,-0.041047,-0.100098,-0.100098,0
5.222222,-0.380000,0.076418,-0.163574,-0.163574,0
5.225000,-0.385000,0.125000,-0.151123,-0.151123,0
5.227778,-0.390000,0.066418,-0.094482,-0.094482,0
5.230556,-0.380000,-0.046047,-0.029785,-0.029785,0
5.233333,-0.380000,-0.149904,0.015381,0.015381,0
5.236111,-0.370000,-0.150954,0.028076,0.028076,0
5.238889,-0.370000,-0.061303,0.011475,0.011475,0
5.241667,-0.365000,0.070000,-0.020508,-0.020508,0
5.244444,-0.390000,0.117721,-0.050781,-0.050781,0
5.247222,-0.365000,0.109907,-0.066650,-0.066650,0
5.250000,-0.365000,-0.005000,-0.063477,-0.063477,0
5.252778,-0.360000,-0.114907,-0.046143,-0.046143,0
5.255556,-0.375000,-0.162721,-0.024658,-0.024658,0
5.258333,-0.380000,-0.095000,-0.009033,-0.009033,0
5.261111,-0.400000,0.011303,-0.005371,-0.005371,0
5.263889,-0.390000,0.110954,-0.014160,-0.014160,0
5.266667,-0.375000,0.114904,-0.030029,-0.030029,0
5.269444,-0.375000,0.011047,-0.045654,-0.045654,0
5.272222,-0.370000,-0.106418,-0.054688,-0.054688,0
5.275000,-0.385000,-0.175000,-0.054932,-0.054932,0
5.277778,-0.390000,-0.126418,-0.048340,-0.048340,0
5.280556,-0.390000,-0.003953,-0.039307,-0.039307,0
5.283333,-0.390000,0.099904,-0.032959,-0.032959,0
5.286111,-0.390000,0.110954,-0.031982,-0.031982,0
5.288889,-0.375000,0.036303,-0.036133,-0.036133,0
5.291667,-0.385000,-0.100000,-0.042969,-0.042969,0
5.294444,-0.395000,-0.182721,-0.048584,-0.048584,0
5.297222,-0.380000,-0.134907,-0.050781,-0.050781,0
5.300000,-0.370000,-0.010000,-0.048584,-0.048584,0
5.302778,-0.375000,0.099907,-0.043701,-0.043701,0
5.305556,-0.375000,0.132721,-0.038574,-0.038574,0
5.308333,-0.390000,0.045000,-0.034912,-0.034912,0
5.311111,-0.405000,-0.096303,-0.034180,-0.034180,0
5.313889,-0.375000,-0.155954,-0.035400,-0.035400,0
5.316667,-0.370000,-0.139904,-0.037598,-0.037598,0
5.319444,-0.360000,-0.026047,-0.038818,-0.038818,0
5.322222,-0.375000,0.081418,-0.037598,-0.037598,0
5.325000,-0.385000,0.125000,-0.034424,-0.034424,0
5.327778,-0.380000,0.076418,-0.029297,-0.029297,0
5.330556,-0.370000,-0.036047,-0.024170,-0.024170,0
5.333333,-0.360000,-0.129904,-0.019775,-0.019775,0
5.336111,-0.345000,-0.125954,-0.017090,-0.017090,0
5.338889,-0.345000,-0.036303,-0.016357,-0.016357,0
5.341667,-0.330000,0.105000,-0.016357,-0.016357,0
5.344444,-0.330000,0.177721,-0.016846,-0.016846,0
5.347222,-0.315000,0.159907,-0.016846,-0.016846,0
5.350000,-0.310000,0.050000,-0.016602,-0.016602,0
5.352778,-0.295000,-0.049907,-0.015869,-0.015869,0
5.355556,-0.285000,-0.072721,-0.015381,-0.015381,0
5.358333,-0.285000,0.000000,-0.015381,-0.015381,0
5.361111,-0.295000,0.116303,-0.016357,-0.016357,0
5.363889,-0.280000,0.220954,-0.017822,-0.017822,0
5.366667,-0.270000,0.219904,-0.019775,-0.019775,0
5.369444,-0.280000,0.106047,-0.021240,-0.021240,0
5.372222,-0.280000,-0.016418,-0.022217,-0.022217,0
5.375000,-0.280000,-0.070000,-0.022217,-0.022217,0
5.377778,-0.290000,-0.026418,-0.021973,-0.021973,0
5.380556,-0.290000,0.096047,-0.021240,-0.021240,0
5.383333,-0.280000,0.209904,-0.020996,-0.020996,0
5.386111,-0.275000,0.225954,-0.020752,-0.020752,0
5.388889,-0.280000,0.131303,-0.020752,-0.020752,0
5.391667,-0.285000,0.000000,-0.020996,-0.020996,0
5.394444,-0.290000,-0.077721,-0.020996,-0.020996,0
5.397222,-0.290000,-0.044907,-0.020996,-0.020996,0
5.400000,-0.280000,0.080000,-0.020752,-0.020752,0
5.402778,-0.280000,0.194907,-0.020264,-0.020264,0
5.405556,-0.285000,0.222721,-0.019287,-0.019287,0
5.408333,-0.290000,0.145000,-0.017578,-0.017578,0
5.411111,-0.300000,0.008697,-0.014648,-0.014648,0
5.413889,-0.295000,-0.075954,-0.011230,-0.011230,0
5.416667,-0.285000,-0.054904,-0.008057,-0.008057,0
5.419444,-0.280000,0.053953,-0.005859,-0.005859,0
5.422222,-0.285000,0.171418,-0.005615,-0.005615,0
5.425000,-0.285000,0.225000,-0.007324,-0.007324,0
5.427778,-0.295000,0.161418,-0.010498,-0.010498,0
5.430556,-0.285000,0.048953,-0.014160,-0.014160,0
5.433333,-0.280000,-0.049904,-0.017334,-0.017334,0
5.436111,-0.275000,-0.055954,-0.019531,-0.019531,0
5.438889,-0.280000,0.028697,-0.020508,-0.020508,0
5.441667,-0.290000,0.145000,-0.020752,-0.020752,0
5.444444,-0.310000,0.197721,-0.020752,-0.020752,0
5.447222,-0.305000,0.169907,-0.020996,-0.020996,0
5.450000,-0.285000,0.075000,-0.021973,-0.021973,0
5.452778,-0.270000,-0.024907,-0.023682,-0.023682,0
5.455556,-0.270000,-0.057721,-0.025391,-0.025391,0
5.458333,-0.275000,0.010000,-0.026855,-0.026855,0
5.461111,-0.285000,0.126303,-0.027832,-0.027832,0
5.463889,-0.285000,0.215954,-0.027588,-0.027588,0
5.466667,-0.270000,0.219904,-0.026611,-0.026611,0
5.469444,-0.265000,0.121047,-0.025146,-0.025146,0
5.472222,-0.265000,-0.001418,-0.023438,-0.023438,0
5.475000,-0.265000,-0.055000,-0.022217,-0.022217,0
5.477778,-0.280000,-0.016418,-0.021729,-0.021729,0
5.480556,-0.265000,0.121047,-0.021973,-0.021973,0
5.483333,-0.245000,0.244904,-0.022705,-0.022705,0
5.486111,-0.235000,0.265954,-0.023682,-0.023682,0
5.488889,-0.235000,0.176303,-0.024170,-0.024170,0
5.491667,-0.250000,0.035000,-0.023926,-0.023926,0
5.494444,-0.250000,-0.037721,-0.022705,-0.022705,0
5.497222,-0.245000,0.000093,-0.021240,-0.021240,0
5.500000,-0.215000,0.145000,-0.019043,-0.019043,0
5.502778,-0.220000,0.254907,-0.016602,-0.016602,0
5.505556,-0.245000,0.262721,-0.013672,-0.013672,0
5.508333,-0.255000,0.180000,-0.009521,-0.009521,0
5.511111,-0.230000,0.078697,-0.003418,-0.003418,0
5.513889,-0.205000,0.014046,0.004395,0.004395,0
5.516667,-0.210000,0.020096,0.013672,0.013672,0
5.519444,-0.220000,0.113953,0.023926,0.023926,0
5.522222,-0.230000,0.226418,0.034180,0.034180,0
5.525000,-0.240000,0.270000,0.043701,0.043701,0
5.527778,-0.240000,0.216418,0.051758,0.051758,0
5.530556,-0.245000,0.088953,0.058350,0.058350,0
5.533333,-0.250000,-0.019904,0.063477,0.063477,0
5.536111,-0.270000,-0.050954,0.067383,0.067383,0
5.538889,-0.285000,0.023697,0.069824,0.069824,0
5.541667,-0.315000,0.120000,0.071045,0.071045,0
5.544444,-0.320000,0.187721,0.071045,0.071045,0
5.547222,-0.320000,0.154907,0.070557,0.070557,0
5.550000,-0.310000,0.050000,0.069336,0.069336,0
5.552778,-0.330000,-0.084907,0.068115,0.068115,0
5.555556,-0.340000,-0.127721,0.066895,0.066895,0
5.558333,-0.345000,-0.060000,0.065918,0.065918,0
5.561111,-0.360000,0.051303,0.065430,0.065430,0
5.563889,-0.365000,0.135954,0.064941,0.064941,0
5.566667,-0.360000,0.129904,0.064941,0.064941,0
5.569444,-0.350000,0.036047,0.064941,0.064941,0
5.572222,-0.355000,-0.091418,0.064697,0.064697,0
5.575000,-0.375000,-0.165000,0.064209,0.064209,0
5.577778,-0.385000,-0.121418,0.062988,0.062988,0
5.580556,-0.375000,0.011047,0.061035,0.061035,0
5.583333,-0.370000,0.119904,0.058594,0.058594,0
5.586111,-0.365000,0.135954,0.056396,0.056396,0
5.588889,-0.365000,0.046303,0.054932,0.054932,0
5.591667,-0.370000,-0.085000,0.054932,0.054932,0
5.594444,-0.380000,-0.167721,0.056396,0.056396,0
5.597222,-0.360000,-0.114907,0.059082,0.059082,0
5.600000,-0.350000,0.010000,0.062012,0.062012,0
5.602778,-0.355000,0.119907,0.063965,0.063965,0
5.605556,-0.355000,0.152721,0.064453,0.064453,0
5.608333,-0.350000,0.085000,0.063232,0.063232,0
5.611111,-0.365000,-0.056303,0.060547,0.060547,0
5.613889,-0.350000,-0.130954,0.057373,0.057373,0
5.616667,-0.350000,-0.119904,0.054688,0.054688,0
5.619444,-0.340000,-0.006047,0.052979,0.052979,0
5.622222,-0.355000,0.101418,0.052979,0.052979,0
5.625000,-0.350000,0.160000,0.054932,0.054932,0
5.627778,-0.375000,0.081418,0.058350,0.058350,0
5.630556,-0.365000,-0.031047,0.062744,0.062744,0
5.633333,-0.375000,-0.144904,0.066895,0.066895,0
5.636111,-0.400000,-0.180954,0.070068,0.070068,0
5.638889,-0.430000,-0.121303,0.071777,0.071777,0
5.641667,-0.475000,-0.040000,0.072266,0.072266,0
5.644444,-0.520000,-0.012279,0.072021,0.072021,0
5.647222,-0.520000,-0.045093,0.072510,0.072510,0
5.650000,-0.550000,-0.190000,0.074219,0.074219,0
5.652778,-0.570000,-0.324907,0.078125,0.078125,0
5.655556,-0.540000,-0.327721,0.083740,0.083740,0
5.658333,-0.445000,-0.160000,0.090332,0.090332,0
5.661111,-0.305000,0.106303,0.096924,0.096924,0
5.663889,-0.140000,0.360954,0.102295,0.102295,0
5.666667,0.025000,0.514904,0.105713,0.105713,0
5.669444,0.260000,0.646047,0.107178,0.107178,0
5.672222,0.510000,0.773582,0.107666,0.107666,0
5.675000,0.735000,0.945000,0.107422,0.107422,0
5.677778,0.845000,1.108582,0.107910,0.107910,0
5.680556,0.875000,1.261047,0.109131,0.109131,0
5.683333,0.735000,1.224904,0.111572,0.111572,0
5.686111,0.400000,0.900954,0.115234,0.115234,0
5.688889,-0.025000,0.386303,0.119141,0.119141,0
5.691667,-0.335000,-0.050000,0.122803,0.122803,0
5.694444,-0.480000,-0.267721,0.125000,0.125000,0
5.697222,-0.470000,-0.224907,0.124512,0.124512,0
5.700000,-0.415000,-0.055000,0.120605,0.120605,0
5.702778,-0.375000,0.099907,0.113037,0.113037,0
5.705556,-0.365000,0.142721,0.102051,0.102051,0
5.708333,-0.385000,0.050000,0.088867,0.088867,0
5.711111,-0.400000,-0.091303,0.075195,0.075195,0
5.713889,-0.380000,-0.160954,0.062256,0.062256,0
5.716667,-0.390000,-0.159904,0.050781,0.050781,0
5.719444,-0.375000,-0.041047,0.040771,0.040771,0
5.722222,-0.385000,0.071418,0.031738,0.031738,0
5.725000,-0.395000,0.115000,0.023438,0.023438,0
5.727778,-0.405000,0.051418,0.015381,0.015381,0
5.730556,-0.390000,-0.056047,0.007568,0.007568,0
5.733333,-0.380000,-0.149904,0.000488,0.000488,0
5.736111,-0.385000,-0.165954,-0.005371,-0.005371,0
5.738889,-0.385000,-0.076303,-0.009766,-0.009766,0
5.741667,-0.395000,0.040000,-0.012695,-0.012695,0
5.744444,-0.400000,0.107721,-0.014648,-0.014648,0
5.747222,-0.405000,0.069907,-0.016602,-0.016602,0
5.750000,-0.400000,-0.040000,-0.019287,-0.019287,0
5.752778,-0.390000,-0.144907,-0.023193,-0.023193,0
5.755556,-0.390000,-0.177721,-0.027832,-0.027832,0
5.758333,-0.395000,-0.110000,-0.031982,-0.031982,0
5.761111,-0.400000,0.011303,-0.033936,-0.033936,0
5.763889,-0.390000,0.110954,-0.032227,-0.032227,0
5.766667,-0.385000,0.104904,-0.027344,-0.027344,0
5.769444,-0.390000,-0.003953,-0.020020,-0.020020,0
5.772222,-0.385000,-0.121418,-0.012939,-0.012939,0
5.775000,-0.410000,-0.200000,-0.008545,-0.008545,0
5.777778,-0.420000,-0.156418,-0.008301,-0.008301,0
5.780556,-0.405000,-0.018953,-0.011963,-0.011963,0
5.783333,-0.410000,0.079904,-0.017090,-0.017090,0
5.786111,-0.390000,0.110954,-0.020508,-0.020508,0
5.788889,-0.390000,0.021303,-0.019287,-0.019287,0
5.791667,-0.390000,-0.105000,-0.012939,-0.012939,0
5.794444,-0.400000,-0.187721,-0.003662,-0.003662,0
5.797222,-0.400000,-0.154907,0.004395,0.004395,0
5.800000,-0.390000,-0.030000,0.006104,0.006104,0
5.802778,-0.375000,0.099907,-0.002197,-0.002197,0
5.805556,-0.380000,0.127721,-0.020264,-0.020264,0
5.808333,-0.395000,0.040000,-0.044922,-0.044922,0
5.811111,-0.400000,-0.091303,-0.071289,-0.071289,0
5.813889,-0.390000,-0.170954,-0.094971,-0.094971,0
5.816667,-0.400000,-0.169904,-0.114990,-0.114990,0
5.819444,-0.390000,-0.056047,-0.133789,-0.133789,0
5.822222,-0.395000,0.061418,-0.154541,-0.154541,0
5.825000,-0.410000,0.100000,-0.178223,-0.178223,0
5.827778,-0.415000,0.041418,-0.199951,-0.199951,0
5.830556,-0.405000,-0.071047,-0.206299,-0.206299,0
5.833333,-0.385000,-0.154904,-0.177979,-0.177979,0
5.836111,-0.385000,-0.165954,-0.094727,-0.094727,0
5.838889,-0.380000,-0.071303,0.056641,0.056641,0
5.841667,-0.400000,0.035000,0.273926,0.273926,0
5.844444,-0.400000,0.107721,0.535889,0.535889,0
5.847222,-0.395000,0.079907,0.802734,0.802734,0
5.850000,-0.390000,-0.030000,1.025879,1.025879,0
5.852778,-0.380000,-0.134907,1.157715,1.157715,0
5.855556,-0.375000,-0.162721,1.167725,1.167725,1
5.858333,-0.395000,-0.110000,1.050293,1.050293,0
5.861111,-0.395000,0.016303,0.829346,0.829346,0
5.863889,-0.385000,0.115954,0.550293,0.550293,0
5.866667,-0.380000,0.109904,0.269775,0.269775,0
5.869444,-0.375000,0.011047,0.039062,0.039062,0
5.872222,-0.385000,-0.121418,-0.109375,-0.109375,0
5.875000,-0.390000,-0.180000,-0.167480,-0.167480,0
5.877778,-0.400000,-0.136418,-0.152100,-0.152100,0
5.880556,-0.400000,-0.013953,-0.094971,-0.094971,0
5.883333,-0.385000,0.104904,-0.031738,-0.031738,0
5.886111,-0.380000,0.120954,0.010498,0.010498,0
5.888889,-0.395000,0.016303,0.020020,0.020020,0
5.891667,-0.390000,-0.105000,0.000488,0.000488,0
5.894444,-0.400000,-0.187721,-0.033447,-0.033447,0
5.897222,-0.395000,-0.149907,-0.064209,-0.064209,0
5.900000,-0.385000,-0.025000,-0.079102,-0.079102,0
5.902778,-0.380000,0.094907,-0.074463,-0.074463,0
5.905556,-0.385000,0.122721,-0.055664,-0.055664,0
5.908333,-0.395000,0.040000,-0.033203,-0.033203,0
5.911111,-0.405000,-0.096303,-0.017578,-0.017578,0
5.913889,-0.400000,-0.180954,-0.014893,-0.014893,0
5.916667,-0.390000,-0.159904,-0.024902,-0.024902,0
5.919444,-0.380000,-0.046047,-0.041992,-0.041992,0
5.922222,-0.380000,0.076418,-0.057861,-0.057861,0
5.925000,-0.385000,0.125000,-0.065918,-0.065918,0
5.927778,-0.405000,0.051418,-0.063477,-0.063477,0
5.930556,-0.395000,-0.061047,-0.052246,-0.052246,0
5.933333,-0.400000,-0.169904,-0.037598,-0.037598,0
5.936111,-0.390000,-0.170954,-0.025879,-0.025879,0
5.938889,-0.400000,-0.091303,-0.021729,-0.021729,0
5.941667,-0.405000,0.030000,-0.025879,-0.025879,0
5.944444,-0.425000,0.082721,-0.035889,-0.035889,0
5.947222,-0.420000,0.054907,-0.046875,-0.046875,0
5.950000,-0.405000,-0.045000,-0.054688,-0.054688,0
5.952778,-0.400000,-0.154907,-0.056641,-0.056641,0
5.955556,-0.405000,-0.192721,-0.053223,-0.053223,0
5.958333,-0.405000,-0.120000,-0.046631,-0.046631,0
5.961111,-0.415000,-0.003697,-0.039551,-0.039551,0
5.963889,-0.400000,0.100954,-0.034668,-0.034668,0
5.966667,-0.390000,0.099904,-0.032715,-0.032715,0
5.969444,-0.380000,0.006047,-0.032715,-0.032715,0
5.972222,-0.385000,-0.121418,-0.033447,-0.033447,0
5.975000,-0.395000,-0.185000,-0.032959,-0.032959,0
5.977778,-0.405000,-0.141418,-0.031250,-0.031250,0
5.980556,-0.390000,-0.003953,-0.028809,-0.028809,0
5.983333,-0.370000,0.119904,-0.026855,-0.026855,0
5.986111,-0.370000,0.130954,-0.026611,-0.026611,0
5.988889,-0.370000,0.041303,-0.028564,-0.028564,0
5.991667,-0.385000,-0.100000,-0.032227,-0.032227,0
5.994444,-0.370000,-0.157721,-0.036621,-0.036621,0
5.997222,-0.355000,-0.109907,-0.039795,-0.039795,0
6.000000,-0.345000,0.015000,-0.041260,-0.041260,0
6.002778,-0.340000,0.134907,-0.040527,-0.040527,0
6.005556,-0.335000,0.172721,-0.038086,-0.038086,0
6.008333,-0.340000,0.095000,-0.034424,-0.034424,0
6.011111,-0.355000,-0.046303,-0.030762,-0.030762,0
6.013889,-0.335000,-0.115954,-0.027832,-0.027832,0
6.016667,-0.325000,-0.094904,-0.026123,-0.026123,0
6.019444,-0.310000,0.023953,-0.025635,-0.025635,0
6.022222,-0.305000,0.151418,-0.026123,-0.026123,0
6.025000,-0.305000,0.205000,-0.026855,-0.026855,0
6.027778,-0.320000,0.136418,-0.026611,-0.026611,0
6.030556,-0.315000,0.018953,-0.025391,-0.025391,0
6.033333,-0.310000,-0.079904,-0.022949,-0.022949,0
6.036111,-0.305000,-0.085954,-0.019775,-0.019775,0
6.038889,-0.305000,0.003697,-0.017578,-0.017578,0
6.041667,-0.330000,0.105000,-0.016357,-0.016357,0
6.044444,-0.325000,0.182721,-0.016846,-0.016846,0
6.047222,-0.345000,0.129907,-0.018799,-0.018799,0
6.050000,-0.325000,0.035000,-0.021484,-0.021484,0
6.052778,-0.315000,-0.069907,-0.024170,-0.024170,0
6.055556,-0.315000,-0.102721,-0.026367,-0.026367,0
6.058333,-0.305000,-0.020000,-0.027344,-0.027344,0
6.061111,-0.310000,0.101303,-0.027344,-0.027344,0
6.063889,-0.310000,0.190954,-0.026367,-0.026367,0
6.066667,-0.300000,0.189904,-0.025146,-0.025146,0
6.069444,-0.305000,0.081047,-0.024170,-0.024170,0
6.072222,-0.305000,-0.041418,-0.023438,-0.023438,0
6.075000,-0.315000,-0.105000,-0.023682,-0.023682,0
6.077778,-0.320000,-0.056418,-0.024658,-0.024658,0
6.080556,-0.325000,0.061047,-0.026123,-0.026123,0
6.083333,-0.315000,0.174904,-0.027588,-0.027588,0
6.086111,-0.305000,0.195954,-0.028320,-0.028320,0
6.088889,-0.315000,0.096303,-0.028320,-0.028320,0
6.091667,-0.325000,-0.040000,-0.027344,-0.027344,0
6.094444,-0.325000,-0.112721,-0.025879,-0.025879,0
6.097222,-0.330000,-0.084907,-0.024414,-0.024414,0
6.100000,-0.315000,0.045000,-0.023682,-0.023682,0
6.102778,-0.315000,0.159907,-0.024414,-0.024414,0
6.105556,-0.310000,0.197721,-0.027100,-0.027100,0
6.108333,-0.330000,0.105000,-0.030762,-0.030762,0
6.111111,-0.340000,-0.031303,-0.035400,-0.035400,0
6.113889,-0.335000,-0.115954,-0.039795,-0.039795,0
6.116667,-0.330000,-0.099904,-0.043701,-0.043701,0
6.119444,-0.345000,-0.011047,-0.046631,-0.046631,0
6.122222,-0.355000,0.101418,-0.048584,-0.048584,0
6.125000,-0.365000,0.145000,-0.049072,-0.049072,0
6.127778,-0.370000,0.086418,-0.048584,-0.048584,0
6.130556,-0.345000,-0.011047,-0.046631,-0.046631,0
6.133333,-0.340000,-0.109904,-0.043701,-0.043701,0
6.136111,-0.340000,-0.120954,-0.040283,-0.040283,0
6.138889,-0.345000,-0.036303,-0.036865,-0.036865,0
6.141667,-0.360000,0.075000,-0.033691,-0.033691,0
6.144444,-0.365000,0.142721,-0.031494,-0.031494,0
6.147222,-0.360000,0.114907,-0.030029,-0.030029,0
6.150000,-0.360000,-0.000000,-0.028809,-0.028809,0
6.152778,-0.345000,-0.099907,-0.027832,-0.027832,0
6.155556,-0.355000,-0.142721,-0.026611,-0.026611,0
6.158333,-0.365000,-0.080000,-0.024414,-0.024414,0
6.161111,-0.350000,0.061303,-0.021484,-0.021484,0
6.163889,-0.360000,0.140954,-0.017334,-0.017334,0
6.166667,-0.350000,0.139904,-0.011963,-0.011963,0
6.169444,-0.340000,0.046047,-0.006104,-0.006104,0
6.172222,-0.345000,-0.081418,0.000244,0.000244,0
6.175000,-0.355000,-0.145000,0.006104,0.006104,0
6.177778,-0.370000,-0.106418,0.011230,0.011230,0
6.180556,-0.350000,0.036047,0.014893,0.014893,0
6.183333,-0.350000,0.139904,0.018066,0.018066,0
6.186111,-0.350000,0.150954,0.020508,0.020508,0
6.188889,-0.345000,0.066303,0.023926,0.023926,0
6.191667,-0.350000,-0.065000,0.028320,0.028320,0
6.194444,-0.355000,-0.142721,0.034180,0.034180,0
6.197222,-0.360000,-0.114907,0.040771,0.040771,0
6.200000,-0.345000,0.015000,0.046875,0.046875,0
6.202778,-0.355000,0.119907,0.051270,0.051270,0
6.205556,-0.350000,0.157721,0.052734,0.052734,0
6.208333,-0.360000,0.075000,0.051025,0.051025,0
6.211111,-0.370000,-0.061303,0.046387,0.046387,0
6.213889,-0.355000,-0.135954,0.040527,0.040527,0
6.216667,-0.355000,-0.124904,0.034424,0.034424,0
6.219444,-0.350000,-0.016047,0.030029,0.030029,0
6.222222,-0.355000,0.101418,0.028076,0.028076,0
6.225000,-0.360000,0.150000,0.029053,0.029053,0
6.227778,-0.390000,0.066418,0.032715,0.032715,0
6.230556,-0.385000,-0.051047,0.038086,0.038086,0
6.233333,-0.360000,-0.129904,0.043945,0.043945,0
6.236111,-0.360000,-0.140954,0.048584,0.048584,0
6.238889,-0.370000,-0.061303,0.051514,0.051514,0
6.241667,-0.370000,0.065000,0.052002,0.052002,0
6.244444,-0.390000,0.117721,0.050293,0.050293,0
6.247222,-0.375000,0.099907,0.047607,0.047607,0
6.250000,-0.370000,-0.010000,0.044678,0.044678,0
6.252778,-0.350000,-0.104907,0.042236,0.042236,0
6.255556,-0.340000,-0.127721,0.040527,0.040527,0
6.258333,-0.345000,-0.060000,0.039062,0.039062,0
6.261111,-0.360000,0.051303,0.037842,0.037842,0
6.263889,-0.360000,0.140954,0.036621,0.036621,0
6.266667,-0.350000,0.139904,0.035645,0.035645,0
6.269444,-0.350000,0.036047,0.034912,0.034912,0
6.272222,-0.335000,-0.071418,0.035156,0.035156,0
6.275000,-0.360000,-0.150000,0.035889,0.035889,0
6.277778,-0.365000,-0.101418,0.036621,0.036621,0
6.280556,-0.365000,0.021047,0.036621,0.036621,0
6.283333,-0.360000,0.129904,0.034424,0.034424,0
6.286111,-0.360000,0.140954,0.030273,0.030273,0
6.288889,-0.365000,0.046303,0.023926,0.023926,0
6.291667,-0.375000,-0.090000,0.016357,0.016357,0
6.294444,-0.385000,-0.172721,0.009277,0.009277,0
6.297222,-0.385000,-0.139907,0.003906,0.003906,0
6.300000,-0.365000,-0.005000,0.001221,0.001221,0
6.302778,-0.370000,0.104907,0.000977,0.000977,0
6.305556,-0.375000,0.132721,0.002686,0.002686,0
6.308333,-0.370000,0.065000,0.005371,0.005371,0
6.311111,-0.375000,-0.066303,0.007324,0.007324,0
6.313889,-0.365000,-0.145954,0.008057,0.008057,0
6.316667,-0.355000,-0.124904,0.007080,0.007080,0
6.319444,-0.355000,-0.021047,0.004150,0.004150,0
6.322222,-0.360000,0.096418,0.000732,0.000732,0
6.325000,-0.365000,0.145000,-0.002441,-0.002441,0
6.327778,-0.370000,0.086418,-0.003906,-0.003906,0
6.330556,-0.360000,-0.026047,-0.003174,-0.003174,0
6.333333,-0.350000,-0.119904,-0.000488,-0.000488,0
6.336111,-0.340000,-0.120954,0.003174,0.003174,0
6.338889,-0.345000,-0.036303,0.006348,0.006348,0
6.341667,-0.340000,0.095000,0.008057,0.008057,0
6.344444,-0.350000,0.157721,0.007812,0.007812,0
6.347222,-0.345000,0.129907,0.006348,0.006348,0
6.350000,-0.350000,0.010000,0.004639,0.004639,0
6.352778,-0.360000,-0.114907,0.003418,0.003418,0
6.355556,-0.350000,-0.137721,0.003418,0.003418,0
6.358333,-0.360000,-0.075000,0.004395,0.004395,0
6.361111,-0.370000,0.041303,0.005859,0.005859,0
6.363889,-0.360000,0.140954,0.007324,0.007324,0
6.366667,-0.360000,0.129904,0.008057,0.008057,0
6.369444,-0.355000,0.031047,0.008057,0.008057,0
6.372222,-0.360000,-0.096418,0.006836,0.006836,0
6.375000,-0.375000,-0.165000,0.005371,0.005371,0
6.377778,-0.375000,-0.111418,0.003906,0.003906,0
6.380556,-0.370000,0.016047,0.002686,0.002686,0
6.383333,-0.350000,0.139904,0.001953,0.001953,0
6.386111,-0.355000,0.145954,0.001465,0.001465,0
6.388889,-0.360000,0.051303,0.001465,0.001465,0
6.391667,-0.365000,-0.080000,0.000977,0.000977,0
6.394444,-0.375000,-0.162721,0.000488,0.000488,0
6.397222,-0.370000,-0.124907,-0.000977,-0.000977,0
6.400000,-0.365000,-0.005000,-0.003174,-0.003174,0
6.402778,-0.360000,0.114907,-0.006348,-0.006348,0
6.405556,-0.355000,0.152721,-0.009766,-0.009766,0
6.408333,-0.360000,0.075000,-0.012939,-0.012939,0
6.411111,-0.360000,-0.051303,-0.015381,-0.015381,0
6.413889,-0.350000,-0.130954,-0.016357,-0.016357,0
6.416667,-0.340000,-0.109904,-0.015869,-0.015869,0
6.419444,-0.345000,-0.011047,-0.013916,-0.013916,0
6.422222,-0.345000,0.111418,-0.010742,-0.010742,0
6.425000,-0.355000,0.155000,-0.006592,-0.006592,0
6.427778,-0.360000,0.096418,-0.001953,-0.001953,0
6.430556,-0.360000,-0.026047,0.002686,0.002686,0
6.433333,-0.365000,-0.134904,0.006592,0.006592,0
6.436111,-0.345000,-0.125954,0.009521,0.009521,0
6.438889,-0.355000,-0.046303,0.010986,0.010986,0
6.441667,-0.350000,0.085000,0.010986,0.010986,0
6.444444,-0.360000,0.147721,0.009521,0.009521,0
6.447222,-0.355000,0.119907,0.007324,0.007324,0
6.450000,-0.360000,0.000000,0.005127,0.005127,0
6.452778,-0.345000,-0.099907,0.003174,0.003174,0
6.455556,-0.335000,-0.122721,0.001221,0.001221,0
6.458333,-0.330000,-0.045000,-0.000977,-0.000977,0
6.461111,-0.330000,0.081303,-0.003906,-0.003906,0
6.463889,-0.310000,0.190954,-0.007812,-0.007812,0
6.466667,-0.305000,0.184904,-0.011963,-0.011963,0
6.469444,-0.300000,0.086047,-0.015625,-0.015625,0
6.472222,-0.305000,-0.041418,-0.018066,-0.018066,0
6.475000,-0.295000,-0.085000,-0.018555,-0.018555,0
6.477778,-0.305000,-0.041418,-0.016846,-0.016846,0
6.480556,-0.285000,0.101047,-0.013916,-0.013916,0
6.483333,-0.275000,0.214904,-0.010010,-0.010010,0
6.486111,-0.265000,0.235954,-0.006836,-0.006836,0
6.488889,-0.255000,0.156303,-0.004395,-0.004395,0
6.491667,-0.255000,0.030000,-0.003418,-0.003418,0
6.494444,-0.260000,-0.047721,-0.003418,-0.003418,0
6.497222,-0.265000,-0.019907,-0.003662,-0.003662,0
6.500000,-0.255000,0.105000,-0.003174,-0.003174,0
6.502778,-0.255000,0.219907,-0.001709,-0.001709,0
6.505556,-0.260000,0.247721,0.000977,0.000977,0
6.508333,-0.280000,0.155000,0.004883,0.004883,0
6.511111,-0.290000,0.018697,0.009277,0.009277,0
6.513889,-0.280000,-0.060954,0.012939,0.012939,0
6.516667,-0.270000,-0.039904,0.015137,0.015137,0
6.519444,-0.255000,0.078953,0.015381,0.015381,0
6.522222,-0.275000,0.181418,0.013428,0.013428,0
6.525000,-0.290000,0.220000,0.010010,0.010010,0
6.527778,-0.320000,0.136418,0.006104,0.006104,0
6.530556,-0.300000,0.033953,0.002686,0.002686,0
6.533333,-0.295000,-0.064904,0.000000,0.000000,0
6.536111,-0.270000,-0.050954,-0.001709,-0.001709,0
6.538889,-0.265000,0.043697,-0.003174,-0.003174,0
6.541667,-0.270000,0.165000,-0.004639,-0.004639,0
6.544444,-0.285000,0.222721,-0.005859,-0.005859,0
6.547222,-0.300000,0.174907,-0.007324,-0.007324,0
6.550000,-0.310000,0.050000,-0.007812,-0.007812,0
6.552778,-0.315000,-0.069907,-0.007568,-0.007568,0
6.555556,-0.320000,-0.107721,-0.006592,-0.006592,0
6.558333,-0.350000,-0.065000,-0.005127,-0.005127,0
6.561111,-0.370000,0.041303,-0.004395,-0.004395,0
6.563889,-0.365000,0.135954,-0.004883,-0.004883,0
6.566667,-0.365000,0.124904,-0.006348,-0.006348,0
6.569444,-0.365000,0.021047,-0.008545,-0.008545,0
6.572222,-0.370000,-0.106418,-0.010498,-0.010498,0
6.575000,-0.370000,-0.160000,-0.010986,-0.010986,0
6.577778,-0.370000,-0.106418,-0.009766,-0.009766,0
6.580556,-0.380000,0.006047,-0.006592,-0.006592,0
6.583333,-0.360000,0.129904,-0.002197,-0.002197,0
6.586111,-0.375000,0.125954,0.002441,0.002441,0
6.588889,-0.375000,0.036303,0.006104,0.006104,0
6.591667,-0.400000,-0.115000,0.008057,0.008057,0
6.594444,-0.420000,-0.207721,0.008057,0.008057,0
6.597222,-0.405000,-0.159907,0.006348,0.006348,0
6.600000,-0.400000,-0.040000,0.003662,0.003662,0
6.602778,-0.385000,0.089907,0.001221,0.001221,0
6.605556,-0.380000,0.127721,-0.000732,-0.000732,0
6.608333,-0.400000,0.035000,-0.001953,-0.001953,0
6.611111,-0.415000,-0.106303,-0.002197,-0.002197,0
6.613889,-0.405000,-0.185954,-0.001953,-0.001953,0
6.616667,-0.395000,-0.164904,-0.001953,-0.001953,0
6.619444,-0.395000,-0.061047,-0.001953,-0.001953,0
6.622222,-0.395000,0.061418,-0.001465,-0.001465,0
6.625000,-0.410000,0.100000,0.000000,0.000000,0
6.627778,-0.430000,0.026418,0.003906,0.003906,0
6.630556,-0.440000,-0.106047,0.010010,0.010010,0
6.633333,-0.455000,-0.224904,0.018555,0.018555,0
6.636111,-0.490000,-0.270954,0.027832,0.027832,0
6.638889,-0.485000,-0.176303,0.036377,0.036377,0
6.641667,-0.520000,-0.085000,0.042969,0.042969,0
6.644444,-0.570000,-0.062279,0.047363,0.047363,0
6.647222,-0.575000,-0.100093,0.050049,0.050049,0
6.650000,-0.525000,-0.165000,0.052734,0.052734,0
6.652778,-0.420000,-0.174907,0.057129,0.057129,0
6.655556,-0.305000,-0.092721,0.063477,0.063477,0
6.658333,-0.190000,0.095000,0.072021,0.072021,0
6.661111,-0.020000,0.391303,0.081299,0.081299,0
6.663889,0.220000,0.720954,0.089844,0.089844,0
6.666667,0.485000,0.974904,0.095703,0.095703,0
6.669444,0.715000,1.101047,0.097900,0.097900,0
6.672222,0.845000,1.108582,0.096680,0.096680,0
6.675000,0.885000,1.095000,0.093018,0.093018,0
6.677778,0.790000,1.053582,0.088379,0.088379,0
6.680556,0.560000,0.946047,0.083984,0.083984,0
6.683333,0.225000,0.714904,0.081055,0.081055,0
6.686111,-0.070000,0.430954,0.079346,0.079346,0
6.688889,-0.285000,0.126303,0.078125,0.078125,0
6.691667,-0.425000,-0.140000,0.076660,0.076660,0
6.694444,-0.500000,-0.287721,0.073730,0.073730,0
6.697222,-0.550000,-0.304907,0.069336,0.069336,0
6.700000,-0.535000,-0.175000,0.064209,0.064209,0
6.702778,-0.500000,-0.025093,0.059570,0.059570,0
6.705556,-0.465000,0.042721,0.057129,0.057129,0
6.708333,-0.450000,-0.015000,0.058105,0.058105,0
6.711111,-0.450000,-0.141303,0.062012,0.062012,0
6.713889,-0.435000,-0.215954,0.067871,0.067871,0
6.716667,-0.420000,-0.189904,0.072510,0.072510,0
6.719444,-0.410000,-0.076047,0.073242,0.073242,0
6.722222,-0.410000,0.046418,0.068115,0.068115,0
6.725000,-0.415000,0.095000,0.056641,0.056641,0
6.727778,-0.420000,0.036418,0.040527,0.040527,0
6.730556,-0.425000,-0.091047,0.022217,0.022217,0
6.733333,-0.420000,-0.189904,0.005371,0.005371,0
6.736111,-0.430000,-0.210954,-0.007324,-0.007324,0
6.738889,-0.430000,-0.121303,-0.015137,-0.015137,0
6.741667,-0.440000,-0.005000,-0.018066,-0.018066,0
6.744444,-0.450000,0.057721,-0.018066,-0.018066,0
6.747222,-0.450000,0.024907,-0.017090,-0.017090,0
